discovery_probe	control 44	control 18	control 59	control 56	control 61	control 65	control 73	control 49	control 38	control 15	control 40	control 11	control 89	control 87	control 55	control 24	control 46	control 22	control 54	control 76	control 63	control 35	control 28	control 30	control 81	control 74	control 57	control 13	control 53	control 4	control 71	control 20	control 2	control 85	control 33	tumor   27	tumor   84	tumor   47	tumor   12	tumor   1	tumor   34	tumor   80	tumor   3	tumor   31	tumor   83	tumor   5	tumor   78	tumor   37	tumor   50	tumor   23	tumor   66	tumor   41	tumor   36	tumor   6	tumor   14	tumor   17	tumor   62	tumor   52	tumor   25	tumor   39	tumor   16	tumor   72	tumor   58	tumor   86	tumor   21	tumor   19	tumor   70	tumor   77	tumor   90	tumor   75
217046_s_at                	9.64813098901099	9.48887175824176	9.61751054945054	8.45561516483517	9.49908769230769	8.73709351648352	9.75050791208791	10.2559682417582	9.39533406593407	9.28782351648352	7.66954010989011	9.72489439560439	9.41060659340659	9.70064087912088	7.44335065934066	9.59956175824176	9.77089967032967	9.81648032967033	9.27340686813187	9.37975450549451	9.91226384615385	9.37026032967032	9.47628307692308	7.90787967032967	9.53097098901098	9.14980505494505	10.0582614285714	9.65498093406593	8.20747043956044	8.91688021978022	9.66796857142857	8.94941296703296	9.58061406593406	9.18827412087912	9.52787417582418	5.48723692307692	4.75792747252747	4.67395912087912	4.49389593406593	5.11147956043956	7.67521362637362	4.63618263736264	5.34253791208791	5.71753131868132	4.8364356043956	5.29386450549451	5.42413384615384	5.25134714285714	4.51850472527472	5.24962659340659	4.77156538461538	5.34415296703297	4.49322197802198	4.6260106043956	4.4413978021978	6.80643010989011	4.59331692307692	4.66806472527473	5.22339340659341	4.10597351648351	4.17042835164835	4.79913483516484	4.88324373626374	5.69205835164835	5.14187505494505	4.13343527472527	4.41628296703297	5.22469412087912	4.5064221978022	4.26739978021978
235649_at                  	9.97082043956044	8.69816637362637	10.0058540659341	8.89770395604396	9.40558340659341	9.47487791208791	9.17380351648351	9.69160120879121	9.4822767032967	10.1105426373626	7.53658472527472	10.0981082417582	9.24007697802198	9.00425131868132	8.41230802197802	8.91616692307692	9.3219921978022	10.2813637362637	8.70354054945055	9.05858692307692	8.66426923076923	9.78131582417582	10.3032076923077	8.94870681318681	10.5592043956044	9.15522967032967	9.94487021978022	10.0842242857143	9.50428	7.98386637362638	8.59250956043956	8.87278010989011	8.55408857142857	9.34203571428571	9.89720175824176	5.93134395604396	6.38036527472527	4.69404384615385	4.7650028021978	5.01255813186813	7.34207725274725	4.83885725274725	5.71113857142857	5.88188241758241	4.84571978021978	6.84219153846154	5.4214632967033	4.60199032967033	4.86317038461539	5.47298164835165	4.62309604395604	5.18797461538461	5.04291846153846	4.56905054945055	4.8300510989011	5.67404505494505	5.35388813186813	4.75803912087912	4.6267489010989	4.7328810989011	4.83424175824176	4.50805005494506	4.32001571428571	5.0015589010989	4.66433186813187	4.46366131868132	4.97585439560439	4.51947802197802	4.84988142857143	5.96320824175824
209470_s_at                	9.18847439560439	9.01068912087912	8.85107752747253	7.11472736263736	8.79418483516483	7.09197087912088	9.17536604395604	9.56636065934066	8.65624945054945	8.59689967032967	7.78271615384615	8.67760318681319	9.49540021978022	8.87726395604396	5.56760236263736	9.06001879120879	7.67350648351648	8.87242791208791	7.65028450549451	9.28042362637363	9.27107846153847	9.02893208791209	8.35614373626374	7.27000637362637	8.46599824175824	9.07252769230769	8.01132516483516	9.03232978021978	7.89304131868132	8.12570868131868	9.0737810989011	8.08945846153846	9.28042362637363	9.23650153846154	8.51264879120879	4.19615967032967	3.7418589010989	3.93761467032967	3.91031054945055	3.27590648351648	6.89257252747253	3.61001032967033	3.39456351648352	3.20133901098901	3.64025054945055	3.7188739010989	3.45557593406593	3.21919571428571	3.67894010989011	3.96187197802198	3.95119401098901	3.67464483516484	3.60691285714286	3.20546285714286	3.42640351648351	5.33128164835165	3.62840208791209	3.3423	3.49537318681319	3.76773934065934	3.51412098901099	3.45940967032967	3.6288378021978	3.62963032967033	3.66630714285714	3.34280813186813	3.42640351648351	3.58151296703297	3.63015197802198	3.40435681318681
209904_at                  	8.93249681318682	9.23356406593407	8.86640736263736	7.52245208791209	8.44831791208791	7.36937197802198	9.15522967032967	9.14382417582418	8.5623134065934	9.45847478021978	7.23379098901099	8.98064769230769	9.12023197802198	8.97756313186813	6.1987356043956	9.26931417582417	9.08717802197802	8.91071384615385	8.46629197802198	8.83784472527473	9.29272648351648	8.58254362637362	8.16682208791209	8.20374758241758	8.75366769230769	9.04157318681319	9.14605164835165	8.57288967032967	7.55416054945055	9.47352560439561	9.56937527472527	8.20030318681319	9.67002153846154	8.18269857142857	8.46812318681319	4.18428538461538	5.16210758241758	3.44991505494505	4.0577054945055	3.3742110989011	6.84672175824176	3.54726714285714	3.88354835164835	3.59404868131868	3.26128461538462	5.17063131868132	3.46539241758242	4.12694571428572	3.57945802197802	4.59738582417582	3.63046989010989	4.28879868131868	3.88725098901099	3.64678131868132	3.54243362637363	5.80300164835165	3.80713835164835	3.5364267032967	3.26536021978022	4.15201428571428	3.68868230769231	3.9713021978022	3.81156032967033	4.91867076923077	4.96219758241758	4.74095758241758	3.75898956043956	3.73865186813187	3.75419054945055	4.35112406593407
209469_at                  	8.46200912087912	8.08477120879121	8.05757296703297	6.4332821978022	8.27080098901099	7.01614230769231	8.61564923076923	9.17046549450549	8.1799034065934	8.26758252747253	7.78313043956045	8.29978065934066	8.55655164835165	8.03445967032967	5.22388186813187	8.26649747252747	7.19979285714286	8.33848351648352	7.21285637362637	8.28653208791209	8.47384923076923	8.66398230769231	7.37474098901099	7.02544329670329	8.4314554945055	8.92591362637363	8.03517296703297	8.53060131868132	7.60034516483517	7.55760406593406	8.62907142857143	7.42197571428571	8.84955450549451	8.78483450549451	8.43289065934066	4.42365505494505	4.22677093406593	4.17748340659341	4.01879912087912	3.96668824175824	6.45280857142857	3.92003626373626	3.65451142857143	3.99153758241758	3.82516868131868	4.11250791208791	3.57695604395604	3.73751747252747	4.03185395604396	4.05493461538461	3.98668846153846	4.00442879120879	3.77851285714286	3.3540467032967	3.86344142857143	5.08463747252747	3.92189923076923	4.05789615384615	3.77289543956044	4.3502365934066	3.71729467032967	3.9212378021978	3.92384054945055	4.13000901098901	3.78697351648352	3.69022307692308	3.69103197802198	4.05809769230769	3.74201	3.86860208791209
210081_at                  	11.8649758241758	10.9269879120879	11.501121978022	9.37071824175824	11.6609593406593	10.4407659340659	11.7248692307692	11.4749626373626	11.1057065934066	11.1503659340659	9.56232197802198	11.480721978022	11.5071142857143	11.6588395604396	9.06659104395604	10.9947538461538	11.023256043956	11.8041318681319	10.851828021978	11.4973505494506	11.8830054945055	11.4114461538462	11.1391747252747	9.92750725274725	11.432454945055	10.7768153846154	11.6675164835165	11.4265505494505	9.89047912087912	10.6281813186813	11.5877208791209	10.5898186813187	11.4525895604396	11.268221978022	10.8946087912088	6.71408043956044	6.11913208791209	4.67605527472528	4.19851560439561	4.83539494505495	9.27567	4.70336131868132	5.24531802197802	4.48602516483516	4.51203450549451	6.51610087912088	5.2966678021978	4.7957182967033	4.09973120879121	6.67541076923077	4.50779549450549	5.87579307692308	4.59127934065934	4.87882406593407	4.74951637362637	8.38651824175824	4.29723681318681	4.73574296703297	4.60274714285714	4.69286615384615	4.52549406593407	5.65140395604396	5.15792065934066	6.31565483516484	5.98639791208791	5.58340813186813	4.50312846153846	5.46651978021978	4.76510736263736	4.26770417582418
206742_at                  	9.53488	8.74872978021978	9.66223769230769	7.99867879120879	9.18974439560439	9.57268857142857	9.95291747252747	9.07576494505495	10.1340332967033	8.97206736263736	8.69916285714286	9.83466406593407	8.84458978021978	8.64526714285714	7.42395912087912	9.73633461538461	9.05858692307692	10.6202428571429	8.97955307692308	9.50478021978022	10.2120197802198	9.37936505494506	9.58333956043955	7.88783021978022	10.3643076923077	9.77648384615384	9.20363868131868	8.8454932967033	6.82267197802198	7.4374356043956	8.78944373626374	8.74688714285714	9.21787527472527	7.97164483516484	9.02376296703297	6.09257038461539	4.97771615384615	4.05294494505495	4.49605032967033	4.48711703296703	7.49173373626374	4.12227197802198	4.04208692307692	4.1560556043956	4.17430032967033	6.26754164835165	4.3289989010989	4.43538131868132	4.06128076923077	5.69780934065934	4.37607846153846	4.91973197802198	3.85154659340659	3.86776714285714	3.69857472527473	7.04391681318682	3.82094978021978	3.9982254945055	4.21243637362637	3.87368758241758	4.0371310989011	5.02721681318681	4.94066186813187	4.74001868131868	4.422545	4.55084945054945	4.41176846153846	4.64424351648351	4.50182076923077	4.53797076923077
204273_at                  	10.3368175824176	9.13893208791209	9.29403186813187	8.62404637362637	9.30858989010989	8.96813362637363	9.77263934065934	9.3947510989011	9.0455389010989	9.78017538461538	8.16480593406593	9.46429164835165	8.90968769230769	9.19097384615385	8.72499043956044	9.57421813186813	8.94941296703296	9.4898645054945	8.55005824175824	10.017013956044	9.92230747252747	9.70170274725275	9.1613712087912	7.25858516483517	9.10327802197802	9.88333967032967	8.59838560439561	9.00671626373627	8.50147021978022	8.22768318681318	9.57043945054945	8.91438098901099	10.1082018681319	9.57160384615385	8.76905461538462	6.63891505494506	4.87725241758242	5.94009483516484	4.61077373626374	4.09629791208791	7.43956824175824	4.98224296703297	4.37779736263736	4.75166417582417	5.5366878021978	5.69442747252747	4.63859692307692	5.05565175824176	4.92047274725275	6.2699810989011	5.02247142857143	5.85580225274725	4.18079362637363	4.29349274725275	4.6488578021978	6.77526285714286	5.17489104395604	5.2313289010989	5.61886076923077	5.81238340659341	4.75908659340659	4.64858274725275	5.86553736263736	6.7636134065934	5.82990604395604	4.47090428571429	5.10766307692308	5.37593197802198	4.6484321978022	6.36377758241758
203662_s_at                	7.01814769230769	7.08475164835165	6.74305626373627	6.1621456043956	6.5528067032967	6.73786395604396	6.40135164835165	7.42395912087912	6.37844032967033	6.93194615384616	6.65920197802198	6.62426494505494	6.53958758241758	6.85033065934066	5.58490582417582	7.27414175824176	6.45659186813187	6.32421131868132	6.38988428571429	6.62182934065934	6.92720252747253	6.53804032967033	6.98186483516483	6.75168615384616	6.54324769230769	6.51020604395604	7.23971131868132	7.54558340659341	6.68051516483517	6.60536538461539	6.51958120879121	5.94376032967033	6.67070835164835	7.08101923076923	6.76803692307692	5.20262439560439	5.17352912087912	4.65879285714286	4.7288621978022	4.87178725274725	5.35860318681319	4.62716087912088	4.70658450549451	4.89741582417582	5.26137527472528	5.26201637362637	5.27330131868132	5.08336043956044	4.74311824175824	4.93373978021978	5.41148428571429	4.85719615384615	4.94239873626374	5.36940263736264	4.88968120879121	5.20749681318681	4.54100373626374	4.69725956043956	4.97640692307692	4.73735664835165	5.03336582417582	4.65683791208791	4.74926241758242	5.03828637362637	4.8663654945055	4.40887483516483	5.09708725274725	4.87674989010989	5.20672021978022	5.34996615384615
205384_at                  	8.87011252747253	9.30549208791209	7.68958285714286	8.37357758241759	8.17852945054945	8.30794934065934	9.12787494505494	10.2781681318681	9.36452978021978	8.98376582417583	9.09135659340659	8.78250428571429	8.80619736263736	8.18974824175825	7.7691121978022	9.09965351648352	8.91964593406593	8.80749582417582	8.74316005494506	8.70354054945055	9.05121142857143	8.41470340659341	9.3813782967033	8.90454846153846	9.21578879120879	8.54889461538461	9.3189178021978	9.98016362637363	8.05361384615385	8.38703824175824	8.44412934065934	8.58643945054945	8.59925626373626	7.9962456043956	8.82606648351648	6.8987245054945	6.19774175824176	5.80660296703297	6.38604197802198	5.71146758241758	7.20511538461539	6.35352571428571	6.08467104395604	5.47176241758242	5.20918197802198	7.22676274725275	6.64529978021978	6.07706945054945	5.0003156043956	6.5638178021978	6.17924285714286	5.86789423076923	5.87111510989011	5.60882967032967	6.13181505494505	7.10004159340659	6.4881812087912	5.91319423076923	5.99054263736264	5.7265189010989	6.10808494505495	6.3701043956044	6.25007505494506	5.66786406593406	6.19092483516484	5.88802835164835	6.61457230769231	6.16535846153846	5.89390813186813	7.33972846153846
235670_at                  	8.20471021978022	7.81759010989011	9.51430219780219	8.24372098901099	9.12318373626374	9.27955527472528	9.4403689010989	8.1722632967033	8.91757967032967	8.2154210989011	8.24118208791209	9.11097483516484	8.65184065934066	9.06714241758242	7.14934659340659	7.49419384615384	8.54504813186813	9.17380351648351	8.10435142857143	8.89425813186813	8.96532428571429	9.37798131868132	8.75810230769231	7.26328956043956	8.98215263736263	7.78459428571429	8.52883681318681	7.91374934065934	8.40945120879121	8.65853802197802	8.50980175824176	8.65005351648352	8.62465252747253	9.08254186813187	8.17626791208791	5.87634637362637	4.74405637362637	3.82367395604396	4.47054725274725	5.74874901098901	7.27909945054945	4.87777021978022	4.70161879120879	4.71149351648352	6.05163835164835	6.45744252747253	5.17215769230769	5.43478428571429	6.8139921978022	5.37849065934066	5.46677840659341	5.53828648351648	4.98746307692308	6.00037065934066	4.91200978021978	6.64115263736264	5.77065472527472	5.08978824175824	5.70358648351648	5.06944225274725	5.78276659340659	5.37132945054945	5.47872010989011	5.51767230769231	5.02042582417582	4.55061467032967	5.18659087912088	5.88562362637363	5.38050340659341	5.73737626373626
238018_at                  	8.89770395604396	9.11731252747253	8.70601032967033	8.75337538461538	8.55655164835165	9.27912758241758	8.49618736263736	8.68840835164835	6.91525604395604	8.12365252747253	8.48194417582417	8.85757318681318	7.13322879120879	7.9700021978022	8.28789505494506	7.45274912087912	7.65047	9.94614230769231	7.33008098901099	8.18949637362637	8.76940527472527	6.92890076923077	8.45182489010989	7.55311175824176	7.89172043956044	7.31023153846154	7.52364736263736	9.10404197802198	9.58170505494506	6.37670758241758	8.10655406593407	7.81059076923077	7.90250230769231	7.13306714285714	8.48769274725274	4.07391840659341	3.70324120879121	4.61268824175824	4.79903131868132	4.02535362637362	6.92875626373626	3.95408483516484	4.19182428571429	5.87737153846154	3.70936956043956	5.08137714285714	3.93971120879121	5.13791142857143	4.04637032967033	4.80597340659341	4.06831956043956	4.33589560439561	4.17913934065934	5.51444087912088	4.21116472527472	6.78746324175824	4.49852714285714	4.33132175824176	4.0539467032967	3.99893538461539	4.2530578021978	5.53810703296703	4.5819010989011	3.69185620879121	4.46078021978022	4.33978384615385	4.58161692307692	4.03993197802198	3.90416615384615	3.83296428571429
219866_at                  	11.9326516483516	10.3964351648352	10.6227648351648	10.0400301648352	10.8208153846154	10.1911469230769	10.6510274725275	10.9026604395604	10.6684730769231	11.2497758241758	9.07419098901098	11.2178835164835	11.0891197802198	10.8057576923077	9.84462098901099	10.5633384615385	10.7143659340659	11.1116483516484	10.4706846153846	10.2581681318681	10.8700241758242	11.1706417582418	10.8374241758242	10.5242461538462	10.8577142857143	10.5185076923077	11.1409978021978	11.3798252747253	9.62807945054945	10.4167879120879	11.1754516483516	10.7077736263736	10.659389010989	11.6631879120879	11.2940593406593	7.90085989010989	6.05927329670329	4.72747219780219	4.5028143956044	5.61956747252747	8.65992461538462	5.16867296703297	5.04362835164835	5.20592494505495	5.35309483516483	8.33242868131868	6.05568351648352	5.08539901098901	5.50030230769231	7.26013483516483	5.15192071428572	6.69122164835165	4.87307604395604	5.29731549450549	5.04059362637363	7.92173351648352	5.03682642857143	4.60371274725275	5.71179725274725	5.42060197802198	5.43668637362637	5.77574857142857	5.86702945054945	6.88214571428572	7.41154703296703	5.92178098901099	5.26232296703297	5.92691626373626	5.61385857142857	6.67096021978022
213900_at                  	8.63859010989011	8.5822565934066	8.80197571428572	8.04801967032967	8.84620296703297	8.0272556043956	8.43087384615385	9.25375285714286	9.04364901098901	8.35614373626374	7.59075879120879	8.45588681318682	8.70800483516483	8.65794615384616	7.1561767032967	8.74242296703297	8.60192021978022	9.22445934065934	8.29902538461539	9.31975428571429	9.1576078021978	8.39595472527473	8.98178120879121	8.42774285714285	8.23536593406594	9.00639252747253	9.01707868131868	9.00607285714286	6.62951054945055	7.97314626373626	8.63308032967033	7.96418923076923	8.68326978021978	8.6646054945055	8.62762769230769	5.53246027472528	6.2426567032967	4.60987318681319	4.99499186813187	4.88133923076923	6.88987241758242	5.30790692307692	5.36478406593407	4.83102923076923	6.24455263736264	5.3457367032967	4.08639351648352	5.58072736263736	4.68584417582417	6.91311252747253	6.4003543956044	5.54686032967033	3.82083021978022	5.08109604395604	4.69381263736263	5.94121604395605	4.95822	4.09688285714286	6.43471758241758	4.86642065934066	5.03322153846154	5.04494373626374	4.87858714285714	5.42027912087912	6.43080087912088	5.20592494505495	5.04618285714286	4.86558901098901	6.16846725274725	5.46597087912088
225855_at                  	7.5122432967033	6.53541131868132	7.23151956043956	6.2832856043956	6.96990868131868	6.35477098901099	7.12463263736264	7.23578142857143	7.14094736263736	7.03100329670329	6.42536241758242	7.11068065934066	7.15245692307693	7.09127934065934	6.34467131868132	7.19509802197802	6.55259285714286	7.39548648351649	6.48013571428572	6.89039384615385	7.25207428571428	7.26511923076923	6.97216131868132	6.01360802197802	6.81954494505495	7.1211121978022	6.86482197802198	7.40174	5.6559089010989	6.25779802197802	7.41154703296703	6.1363732967033	7.26119736263736	7.32352296703297	7.15701824175824	5.02735582417582	5.64228780219781	4.17878912087912	4.83191747252747	4.21035087912088	5.50495670329671	4.84390615384616	4.39885835164835	3.81527362637363	4.39988692307692	4.90172461538462	4.8374110989011	4.71509406593406	4.42607923076923	5.56663747252747	4.59175478021978	4.81619142857143	4.38621747252747	4.65033428571429	4.90184263736263	4.88324373626374	5.03575626373626	4.21132175824176	4.69824945054945	5.32589681318681	4.14798582417582	4.68552373626374	5.00795769230769	5.39161472527472	5.19408637362637	4.86163769230769	4.60322208791209	4.75443824175824	5.2104032967033	5.76794637362637
201292_at                  	4.22998032967033	4.33282236263736	5.48392648351648	6.01803043956044	4.65346769230769	5.15915043956044	4.36465065934066	4.10045197802198	5.20179324175824	4.5834367032967	4.87215241758242	4.73443450549451	4.71374659340659	4.26495527472528	6.29772527472527	4.10489208791209	5.04306241758242	5.22705186813187	5.54275604395604	5.2486921978022	4.57449956043956	5.34083439560439	4.93229406593407	4.54513835164835	4.80469483516483	4.1795643956044	4.19877956043956	4.41271153846154	4.18127373626374	5.16196868131868	4.64288868131868	4.77063395604396	4.90779873626374	4.35884901098901	4.02035912087912	9.93383912087912	7.61040923076924	10.113450989011	10.060357032967	10.1640634065934	7.92872813186813	7.50556538461539	11.2736615384615	9.20363868131868	10.1707171428571	7.4843934065934	7.52919835164835	9.43991747252747	9.55988505494505	8.70601032967033	9.50527153846154	9.60017274725275	9.92608340659341	9.91489483516484	10.1865875824176	9.58170505494506	7.63311912087912	10.1819165934066	8.35778505494505	8.94909307692308	9.71871549450549	9.88645758241758	8.02267010989011	9.96785417582417	8.48660934065934	8.12547593406594	10.3281582417582	8.6013310989011	8.93462483516483	8.07310549450549
226992_at                  	8.85122934065934	7.96213714285714	7.74893186813187	7.89304131868132	8.01252736263736	7.47538153846154	8.34683725274725	8.04671593406593	9.40349148351648	8.5044778021978	7.73532505494506	8.50753461538462	7.9997612087912	7.32373307692308	7.65297472527473	8.67947021978022	9.07719736263737	8.5325876923077	8.40646	7.45950175824176	8.41495857142858	8.1804445054945	8.56261362637363	7.84956516483517	8.34589571428571	8.48460428571429	7.58910384615385	8.65909824175824	6.14166175824176	7.70328285714286	8.00643252747253	8.09506527472528	8.02032076923077	7.53229813186813	8.18489417582417	5.99420417582417	4.53433659340659	3.98328923076923	3.46480824175824	3.85906934065934	6.43471758241758	4.23801714285714	3.6428210989011	3.79892131868132	4.36192043956044	5.51074681318681	4.29437153846154	4.19630692307692	3.9405910989011	5.88381956043956	3.9244989010989	4.71125945054945	4.30343186813187	4.50752076923077	4.36661538461538	5.41440846153846	4.08938714285714	4.12134120879121	3.77722032967033	4.79320087912088	3.51393527472528	4.29074813186813	3.90874857142857	5.98879912087912	4.93997065934066	3.54660879120879	3.95471648351648	4.14284912087912	6.30606824175824	6.10739769230769
209773_s_at                	5.20607846153846	6.71691868131868	6.59921197802197	7.74083	5.43606934065934	5.69806802197802	4.90208142857143	4.63670384615385	6.07248010989011	4.81722318681319	5.96721263736264	5.63633461538461	5.29555307692308	5.01499054945055	7.35898285714286	5.08906565934066	7.20720241758242	5.82828406593407	6.31514538461539	6.38516263736264	4.77748197802198	6.14009571428572	5.61062813186813	5.68507802197802	5.08041153846154	5.67029241758242	5.16368153846154	5.23658615384615	4.98010043956044	7.14655978021978	5.76642813186813	6.37609901098901	6.07006285714286	4.87215241758242	4.4634832967033	8.50894142857143	8.13301472527473	11.4486835164835	11.0390483516484	9.60448978021978	9.61176285714286	9.17579054945055	10.4020802197802	10.463210989011	10.6669725274725	7.76863065934066	8.72236065934067	10.0680512087912	9.9908845054945	8.46136879120879	9.45019747252747	9.97682395604395	9.79904648351648	10.7891791208791	9.90590626373626	10.1332854945055	9.54693571428572	11.0047802197802	10.3428208791209	9.16643186813187	10.7878252747253	9.93443945054945	9.29774065934066	10.3875686813187	8.57620472527473	7.90807406593406	10.2839065934066	9.79172802197802	8.5473943956044	9.18064021978022
201291_s_at                	3.88269483516484	3.75663252747253	4.66219736263736	5.04682010989011	3.97533010989011	4.56964186813187	3.47843357142857	3.74922571428571	4.34976582417582	3.58505626373626	3.77725021978022	3.94232274725275	4.44026538461539	3.76464835164835	3.48345648351648	3.58939620879121	4.86974593406593	4.89548241758242	5.39317945054945	4.28719010989011	3.29361538461538	3.85401846153846	3.9443406043956	4.41216945054945	3.87255912087912	4.4913610989011	3.84296164835165	3.95654648351648	3.65818747252747	3.71213978021978	3.73686593406593	3.98830879120879	3.68981274725274	3.57831318681319	3.44539956043956	9.50143945054945	6.72708692307692	9.37756186813187	9.60124681318681	9.3302556043956	8.16572675824176	7.04701230769231	10.5778758241758	8.74872978021978	9.57683186813187	7.05649615384615	7.31792098901099	8.78483450549451	8.51674956043956	8.02969967032967	9.10290835164835	9.13187934065934	9.24740758241758	9.17421901098901	9.66743164835165	9.12938054945055	6.26079989010989	10.4073835164835	8.66398230769231	8.28406098901099	9.13422901098901	9.12023197802198	6.92243571428571	9.14132142857143	8.52763483516484	7.94946857142857	9.26029274725275	8.0268367032967	7.9833667032967	7.13051593406594
207547_s_at                	9.32115824175824	9.02784285714286	9.67054098901099	8.88433901098901	9.16603461538462	9.63128252747253	11.163471978022	8.87989703296703	9.34754802197802	10.0631694505495	9.23476362637363	10.5479285714286	8.83330285714286	9.4658734065934	6.93967576923077	9.16294626373627	9.13629791208791	10.3890857142857	8.0299756043956	8.91285483516483	10.6480824175824	9.41401461538462	9.77410791208791	8.33699999999999	10.4146747252747	8.14009065934066	9.70017934065934	10.1266846153846	8.70010879120879	8.67432230769231	9.1911617032967	9.52546560439561	9.45019747252747	9.31261241758242	9.33147681318681	6.42983868131868	6.38459692307692	5.66803054945055	5.84746340659341	5.42722252747253	8.66697923076923	6.10243395604396	5.73986076923077	6.26978791208791	5.89848368131868	5.97365	6.26281087912088	5.72760054945055	5.82132153846154	7.26309945054945	5.77927318681319	6.10198659340659	5.50733637362637	6.10790274725275	5.5750210989011	7.26729164835165	5.83797615384616	5.64716813186813	5.37865604395604	5.40173637362637	6.24588505494506	5.80590945054945	5.50718637362637	6.29957230769231	5.92914527472527	5.90306846153847	5.86500340659341	6.0380710989011	5.99892065934066	5.89728923076923
213451_x_at                	10.1583598901099	9.16175571428571	9.01419802197802	8.45588681318682	9.27609648351649	8.9296310989011	9.1761956043956	10.0152095604396	9.51077802197802	9.76424978021978	9.3385143956044	9.76592274725274	9.51077802197802	9.03413285714286	7.9207789010989	9.3378432967033	9.4700521978022	9.68928010989011	9.43524208791209	9.09625483516484	9.32901769230769	9.14728901098901	10.0025221428571	10.1487125274725	9.13222725274725	9.43564329670329	10.3513373626374	10.708778021978	9.00898230769231	8.26758252747253	9.14382417582418	8.43564318681319	9.1613712087912	9.30163956043956	10.5498054945055	8.29140879120879	6.41271571428572	6.05406494505494	5.58147989010989	5.79731857142857	7.69546214285715	5.80894956043956	6.06294912087912	6.47883	5.93203087912088	8.17013373626374	5.06356516483517	5.52749857142857	5.91042494505495	6.5495654945055	6.22117274725275	5.97032351648352	5.78205593406593	5.5619521978022	5.65018989010989	7.49819203296703	5.99596923076923	5.65486263736264	5.89661791208791	6.08383516483516	5.6538643956044	5.81590538461538	5.88080373626374	6.48443681318681	7.94972362637363	5.84637516483517	5.6668067032967	5.34415296703297	5.95930626373626	5.94121604395605
226397_s_at                	7.57543142857143	7.75530681318681	7.69947263736264	8.02056186813187	8.13572527472528	8.04047021978022	7.5424956043956	8.03167857142857	7.88029956043956	7.90523208791209	7.70458648351648	7.67741824175824	7.88579417582417	8.02656340659341	7.64922956043956	8.10385703296704	8.48632241758241	7.52858868131868	8.09462901098901	7.62789087912088	7.57142494505495	8.14286054945055	7.63763901098901	7.01123703296703	7.51139153846154	7.4687789010989	8.11067516483517	7.95317203296703	7.86508659340659	8.33901296703296	7.27324472527472	7.94376406593407	8.12918692307692	7.80973868131868	7.43938692307692	5.52021307692308	6.42880032967033	4.23380384615385	4.54702384615385	4.27686956043956	6.2436	4.63574549450549	4.56657538461539	5.46865164835165	4.88212626373626	5.9274634065934	4.4492732967033	5.01133912087912	4.69824945054945	5.81131769230769	4.4036267032967	5.00585879120879	4.32431615384615	4.35099461538462	4.72664593406593	6.06884340659341	5.11799351648351	4.77839142857143	4.57803725274725	5.43325532967033	5.25896329670329	4.96760675824176	5.72371879120879	5.44837769230769	4.81673032967033	4.82614043956044	4.77005131868132	5.82884340659341	5.60207274725275	6.24932835164835
222520_s_at                	5.39161472527472	6.62776131868132	5.51973098901099	6.2590943956044	5.85679384615385	5.12362934065934	5.71735582417583	6.78580153846154	5.47553934065934	5.65755461538461	5.40675434065934	5.64340675824176	6.66429813186813	6.39844571428571	5.82957956043956	6.41271571428572	6.65652824175824	5.2183	6.34586901098901	5.77542472527472	6.27951615384615	6.01633131868132	5.79250758241758	6.10018978021978	6.13579747252747	4.65321054945055	6.55411835164835	6.70399846153846	5.28846197802198	6.98086901098901	7.06673395604396	6.06946335164835	6.39929428571429	5.52570197802198	5.60524263736264	3.9090628021978	3.90120549450549	3.21478197802198	2.96413483516484	3.69727747252747	4.3894610989011	3.32295807692308	3.41419824175824	3.39390802197802	3.5264310989011	4.64435516483516	3.19606747252747	3.61283681318681	3.86262835164835	4.1748089010989	3.52051846153846	3.4761321978022	3.29616681318681	3.16753010989011	3.64051879120879	4.33352868131868	3.53290126373626	3.46524714285714	3.52766505494506	3.90553758241758	3.55298945054945	3.81477340659341	3.4934932967033	3.59816197802198	4.27904153846154	4.53848813186813	3.8924610989011	3.63427175824176	3.64022538461538	3.53059285714286
32625_at                   	8.18467373626373	8.21148824175824	7.34451043956044	7.3988710989011	7.81553549450549	8.3661710989011	8.22753945054945	7.91135659340659	7.71094703296703	7.72939263736264	8.21752912087912	8.18656197802198	8.08311912087912	8.21778032967033	7.20938043956044	7.66588648351648	7.89393637362638	8.2876532967033	7.82690571428571	8.15491461538462	8.79580758241758	7.71139956043956	7.7887221978022	6.9527789010989	7.37732582417582	7.90003131868132	8.14939450549451	7.80810494505495	7.50094153846154	7.13523109890109	7.92463824175824	7.91456538461539	8.43931076923077	7.95774879120879	7.88048769230769	6.33454483516484	5.70842934065934	5.42240758241758	5.64195197802198	4.88034153846154	6.48310538461539	5.6867245054945	5.42706142857143	5.6896332967033	5.80642197802198	6.15499021978022	6.6293067032967	5.51904846153846	4.75471428571429	5.96628835164835	5.90542659340659	6.03766340659341	5.85708428571429	5.82198087912088	5.36417505494505	6.83363692307692	5.39000087912088	5.51275175824176	5.36301230769231	5.59163461538461	5.06343175824176	5.92947241758242	5.58089208791209	6.22390285714286	6.0047432967033	5.77751989010989	5.28223098901099	5.53223879120879	6.03676054945055	7.33163032967033
206167_s_at                	8.35314043956044	7.16667263736264	6.75188483516484	7.05922945054945	6.97233406593406	7.38140659340659	7.66875934065934	7.77911791208791	7.49875197802198	7.88011252747253	6.80369417582418	8.32559703296703	7.17453923076923	6.7204128021978	6.6941132967033	7.25184769230769	7.13384285714286	7.91305340659341	7.08503543956044	6.75345769230769	7.7887221978022	7.7280778021978	7.64943318681318	6.36231626373626	7.39864560439561	7.72765725274725	7.33296346153846	7.6715178021978	6.41868098901099	7.14934659340659	7.04101197802198	7.59596208791209	7.59057791208791	8.00255835164836	7.4005778021978	5.89711835164835	4.53550615384615	4.27534406593407	4.27361054945055	4.32550835164835	5.46417296703297	4.79770423076923	3.7576067032967	3.89596307692308	5.16295175824176	5.92804032967033	4.32348714285714	4.6796189010989	4.86857098901099	5.0602467032967	4.6867610989011	3.79117989010989	3.79088714285714	3.94865516483517	4.15441450549451	4.82243087912088	4.52499615384615	3.94397626373626	4.12469758241758	4.96262	4.11497208791209	3.78853626373626	4.92527494505495	5.39746593406594	5.05502769230769	4.79686835164835	4.3385732967033	4.24583142857143	3.73920285714286	6.63091450549451
228480_at                  	7.22107395604396	6.54219208791209	6.78104340659341	6.45780142857143	7.15224065934066	6.14357142857143	7.18003692307692	6.92243571428571	7.33568758241758	7.22530010989011	6.77842186813187	7.23278406593407	7.17511285714286	7.06899516483517	5.12573967032967	6.49616615384615	6.07697263736264	6.98586373626374	5.71861318681319	6.8241310989011	7.55171741758242	7.38920747252747	6.47711510989011	6.78125208791209	6.48079989010989	6.81224857142857	7.04701230769231	7.39002340659341	6.71227043956044	6.03964780219781	7.39230384615385	6.65137560439561	6.88279043956044	7.29870263736264	7.55817483516484	4.65388197802198	4.44440582417583	3.98322956043956	5.08052472527473	4.45395439560439	5.19017461538462	4.99274802197802	4.02734604395604	4.18844318681319	3.93702659340659	5.38397340659341	4.27171384615385	4.35192439560439	4.81722318681319	5.48367648351648	4.32102263736264	4.35402	4.37232494505495	4.00507065934066	4.37327901098901	4.41447769230769	4.8575678021978	4.89919395604395	4.54753417582418	4.41683934065934	4.18251	4.64858274725275	4.11242428571428	5.11071802197803	5.15586120879121	4.78746351648351	4.79450032967033	4.20372120879121	5.87372681318681	4.99965681318681
204931_at                  	9.86020032967033	9.54140956043956	8.69056714285714	8.87792956043956	9.2096345054945	8.71893846153846	9.4148943956044	8.84754274725275	8.86421164835165	9.6350176923077	9.14382417582418	9.0201045054945	9.26120791208791	9.21157142857143	8.28089230769231	9.77675928571429	8.68106736263736	9.36374505494505	9.03156824175824	8.59731406593407	10.1661954945055	9.71556505494505	9.22527087912088	8.85438087912088	9.80776208791209	8.78392736263736	8.94279043956043	9.80064538461538	8.52620428571428	8.37474593406593	9.39371912087912	8.48356307692308	8.98409230769231	9.3748854945055	9.5642956043956	6.75812725274725	6.03052065934066	4.08915774725275	5.05021318681319	4.21461571428571	7.43850230769231	6.37234505494505	4.16263934065934	4.19388774725275	4.57147747252747	7.09158351648351	6.15685714285714	5.06203626373626	4.71456626373626	6.66203120879121	5.10011538461538	5.43495967032967	4.22054296703297	4.05526692307692	4.56841956043956	6.43271230769231	6.45900538461538	4.3065754945055	5.17639604395604	5.10850351648352	4.82699802197802	5.16329802197802	5.82500208791209	5.50256054945055	5.78023901098901	5.18926065934066	5.31724428571429	5.69679675824176	4.78458615384615	5.87807967032967
204271_s_at                	10.8675802197802	10.0579613736264	9.53343681318682	8.7608010989011	9.46867351648352	9.80406043956044	10.2120197802198	10.185039010989	9.73532263736264	10.0641948901099	9.02489186813187	10.1567391208791	9.44570483516483	9.77023362637363	8.91438098901099	10.3070802197802	9.87354989010989	10.0426222527473	9.34572505494505	10.4020802197802	10.5401263736264	9.85642472527473	9.95431615384615	8.49678494505494	9.95218527472527	10.3711098901099	9.32383648351648	9.81305087912088	9.23432197802198	8.93167527472528	9.94908648351648	9.17380351648351	10.4495747252747	9.72549395604396	9.56885538461538	7.72193043956044	6.31514538461539	6.64696912087912	6.08668703296703	5.15289571428571	8.41495857142858	6.39723978021978	6.64096120879121	6.13660472527473	7.27686868131868	7.10349285714286	7.5994410989011	6.10747543956044	6.29141494505494	7.09256615384615	6.60398934065934	7.41408527472528	5.69356472527473	6.02544692307692	6.32421131868132	7.69350076923077	6.65694483516483	5.64349560439561	6.57052769230769	6.3502232967033	6.08762373626374	6.87064967032967	7.55027252747253	7.77775686813187	6.8878082967033	5.58384824175824	5.85460362637362	6.87777879120879	6.4774121978022	8.34764659340659
216333_x_at                	9.88333967032967	9.24358516483517	8.8934745054945	8.34576857142857	9.16643186813187	8.86579725274725	8.91757967032967	9.89592604395605	9.46633648351648	9.83235285714286	9.21275912087912	9.51574472527473	9.39063538461539	8.80417785714285	8.24118208791209	9.06483049450549	9.3207032967033	9.61803648351648	9.36414615384615	8.95471615384615	9.0472504945055	9.06636428571428	9.71973065934066	10.0972641758242	8.92038978021978	9.34710923076923	10.0918027472527	10.7234032967033	8.79545604395605	7.96418923076923	8.8185245054945	8.49022868131868	8.91108120879121	9.25546681318681	10.4202164835165	8.04598131868132	6.73694241758242	5.65042313186813	6.0691889010989	5.96010472527473	7.59303769230769	5.59607472527473	5.4668667032967	6.46081824175824	5.93879747252747	8.1804445054945	5.57220241758242	5.85519230769231	5.97660126373627	6.3684743956044	6.49278659340659	5.8419045054945	5.85550945054945	5.56951725274725	5.09762934065934	7.49173373626374	5.50650428571429	5.3496656043956	5.48151384615385	6.10890626373626	6.00659230769231	5.86798252747253	6.32190241758242	6.37288340659341	7.80925637362637	5.93409318681319	5.36876714285714	6.13086131868132	6.49893456043956	6.22126263736264
209074_s_at                	10.6465802197802	10.1328964285714	11.1211549450549	10.4050483516484	10.5174153846154	10.8401340659341	11.9534153846154	10.2044946153846	10.1025227472527	11.0891197802198	10.4214917582418	11.8093043956044	10.0033687912088	10.4745945054945	8.07310549450549	9.7720632967033	10.2594434065934	11.3460285714286	9.01386131868132	10.2105991208791	11.3162895604396	10.7916637362637	10.8126846153846	9.46674274725275	11.1330681318681	9.51842747252747	11.0009010989011	10.9479747252747	9.60638521978022	9.58911153846154	10.6060846153846	10.6969406593407	10.3374978021978	10.7576516483516	10.5156010989011	6.73145406593407	6.18984076923077	4.31315197802198	4.47436021978022	4.20557945054945	9.81719098901099	5.06409120879121	4.82955230769231	4.72030175824176	5.63502725274725	6.10790274725275	5.11089362637363	4.48685208791209	4.69508241758242	7.60329791208791	5.8159893956044	6.66145032967033	4.79202373626374	4.51134285714285	4.73742252747253	8.44247582417582	5.12486274725275	4.42733351648352	5.2814478021978	4.38269296703297	4.81107549450549	5.74964846153846	5.67045153846154	6.61913527472527	6.42154186813187	4.79417505494505	6.19302835164835	4.6769232967033	4.80146038461539	6.01854208791209
235155_at                  	4.82431857142857	4.71745549450549	4.68397153846154	4.77769428571429	4.41244516483517	4.25346934065934	5.06880692307692	4.58525747252747	5.14754846153846	5.00984846153846	5.03477098901099	4.74939241758241	4.74811769230769	4.54148857142857	4.76956538461539	4.22165637362637	4.94818461538462	4.78746351648351	4.42738093406594	5.06493571428571	5.09285142857143	5.14214549450549	4.56251032967033	4.91538351648352	4.20050313186813	5.16982483516484	4.90256516483517	5.06790961538461	4.05307868131868	4.55230912087912	5.2269156043956	4.75352956043956	4.99372417582418	4.5257165934066	4.62209153846154	3.70239472527472	3.54414197802198	3.55858351648352	3.39892175824176	3.54366032967033	3.53985450549451	3.72058076923077	3.12801967032967	3.40602956043956	3.25004032967033	3.55271021978022	3.43450406593407	3.52532868131868	3.6990743956044	3.81430428571429	3.60341494505494	3.66623164835165	3.3345232967033	3.72193043956044	2.95433164835165	3.58995241758242	3.41150296703297	3.48337571428572	3.59992978021978	4.08251340659341	3.38699813186813	3.50776956043956	3.82879873626374	3.83872593406593	3.86712175824176	3.29600340659341	3.77251087912088	3.50191483516484	3.26872131868132	3.97672604395604
222608_s_at                	3.69877274725275	4.17061142857143	3.86663208791209	4.94170972527472	4.02403186813187	4.42086192307692	4.00266307692308	3.79814527472527	4.39017945054945	3.51838340659341	4.06934148351649	4.17211692307692	4.10795252747253	3.79182164835165	5.11708142857143	3.66946472527473	4.3674471978022	4.38767736263736	4.60351538461538	5.0384143956044	3.34424846153846	4.67939274725275	4.09244384615385	3.9655745054945	3.51910659340659	4.64654164835165	3.49523538461538	3.64973868131868	3.83084065934066	4.70234824175824	4.12825560439561	4.41380230769231	4.36478576923077	3.60679175824176	3.63323252747253	8.51069472527473	5.82437593406593	8.87343549450549	8.9147456043956	9.00941417582418	8.12029054945055	8.01536340659341	8.98474626373627	9.17421901098901	8.88528648351648	6.82932945054945	6.21574868131868	8.75949505494505	9.04687406593407	6.60979703296703	8.58747076923077	9.51077802197802	8.87085901098901	9.27527978021978	8.11581098901099	8.09682450549451	8.34313648351648	8.81642153846154	7.21653758241758	6.79300120879121	8.22232582417582	9.86562626373626	8.34992967032967	8.10667763736264	6.78549708791209	8.03598087912088	8.78740406593406	8.43564318681319	6.85384758241758	8.22442747252747
218723_s_at                	12.6665263736264	12.692310989011	12.6154076923077	12.7271010989011	12.5696054945055	12.3922175824176	12.7552934065934	12.6484967032967	12.8244296703297	12.8385395604396	12.0054725274725	12.8488494505495	12.0404846153846	12.5788505494506	11.8917197802198	12.7599043956044	12.8934461538462	13.1725857142857	12.2961494505495	12.403543956044	12.7126076923077	12.525267032967	12.973789010989	11.1931010989011	12.6665263736264	12.5430076923077	12.3387087912088	12.5788505494506	11.7306686813187	12.6385912087912	12.3582175824176	12.8385395604396	12.7126076923077	12.6484967032967	12.2574989010989	10.2030208791209	9.68102010989011	8.7506478021978	9.1090310989011	9.30025098901099	11.3267087912088	9.96567274725275	8.64208318681318	9.19731934065934	8.77368505494505	10.7867230769231	9.73406098901099	9.68388714285714	9.03535637362637	10.9269879120879	9.16209824175824	9.80834318681319	9.59274769230769	9.4148943956044	8.91897846153846	10.4668725274725	9.89981285714286	8.15297324175824	9.5547932967033	9.52200538461538	9.30025098901099	9.67880208791209	9.80474197802198	10.4163351648352	10.5233307692308	9.7499256043956	10.219552967033	9.52546560439561	9.12546406593407	10.8100901098901
226627_at                  	7.95509351648352	7.93509615384616	7.50178307692308	7.17156153846154	7.24492571428571	7.34028153846154	6.8247732967033	7.86020098901099	7.67898461538461	7.52858868131868	6.84797076923077	7.32133549450549	7.51839010989011	7.40781906593407	7.15564510989011	7.74196274725275	7.32481571428571	7.58376439560439	7.31002747252747	7.41796395604396	7.64698560439561	7.77398098901099	7.82731637362637	7.2926621978022	6.9347471978022	7.61865120879121	7.59019208791209	7.82731637362637	6.64249912087912	7.90547538461538	7.48269703296703	7.1323967032967	7.30673395604396	7.35235659340659	6.95652758241758	5.81502681318682	5.52148010989011	4.74966274725274	4.53610098901099	5.01719087912088	6.25928252747253	5.10313912087912	4.34016131868132	5.24098967032967	4.95157736263736	5.9433878021978	5.55612120879121	5.39382637362637	6.18741681318681	5.61774417582417	5.27621747252747	4.75728923076923	4.80714725274725	5.03870197802198	4.17487681318681	5.6282078021978	5.78150340659341	4.6833067032967	5.26799087912088	5.65067340659341	4.62423186813187	5.00112362637362	5.0170589010989	5.22777593406593	5.44989736263736	5.44751692307692	5.04440978021978	4.63837428571429	4.51348516483516	6.59636989010989
225915_at                  	8.61092747252748	8.05009956043956	7.94466582417583	7.37128428571428	7.74940769230769	7.09508406593407	8.03143307692308	8.32736318681319	7.35661087912088	8.46812318681319	7.89438703296703	8.35642516483516	7.84708538461538	7.08999582417582	5.8863389010989	7.45820153846154	6.82291054945055	8.08030142857143	6.89863038461539	7.95754274725275	8.74813549450549	7.96757021978022	7.81218417582417	7.44751901098901	8.43900758241758	7.76561164835165	6.77283302197802	8.39334945054945	6.8347921978022	7.36684923076923	8.18873197802198	7.92947318681319	8.32656747252747	8.64305912087912	7.95174153846154	5.97440967032967	5.5247189010989	4.81898252747253	3.96184417582418	4.33737835164835	5.9286189010989	5.48624197802198	4.60134626373627	4.39709	5.60558	5.90527956043956	3.96718296703297	5.41148428571429	5.52437197802198	5.13593736263736	4.39452252747253	6.18222120879121	4.90827296703297	4.24906461538461	5.16555725274725	5.45774263736264	4.94545653846154	4.56696478021978	4.45577274725275	5.65814593406594	4.55856747252747	4.42102175824176	5.11261159340659	5.23605582417582	5.35259681318681	4.66794934065934	6.33678423076923	4.23837021978022	4.97458967032967	5.75511142857143
202870_s_at                	4.39414978021978	4.5062178021978	4.69113879120879	6.05721098901099	4.45801868131868	4.24924225274725	4.01585197802198	4.32535934065934	4.55588527472528	4.65868142857143	4.18492417582418	4.01456571428571	4.98585461538462	4.1601934065934	4.85343274725275	4.24534824175824	5.11281032967033	4.61971313186813	5.10408681318681	4.52388758241758	4.03088527472527	4.64910065934066	4.64779708791209	4.33473802197802	4.35176912087912	4.75974747252747	4.15330868131868	4.30523945054945	3.79810384615385	4.25569203296703	4.48636483516484	4.74477230769231	4.54913571428572	4.57874225274725	3.69805010989011	8.62609120879121	7.31182956043956	10.3044516483516	9.4658734065934	9.52995681318681	7.34347318681318	7.82619571428572	10.8627010989011	9.05708065934066	8.49478406593407	6.81383120879121	7.96459263736264	8.57058637362637	7.77602648351648	8.36046296703297	7.71857373626374	8.54504813186813	9.1314589010989	9.12283384615385	9.89414956043956	8.32036010989011	7.75024461538461	8.60638637362638	8.57117824175824	8.73224769230769	8.81411593406593	9.58752626373627	8.35655054945055	9.34658054945055	6.86371791208791	7.52138967032967	9.71763494505495	9.09354714285714	8.24435032967033	6.95539494505494
236936_at                  	7.24688241758242	5.88135835164835	6.98806923076923	5.8857932967033	6.3051567032967	6.44878032967033	7.98498131868132	7.5019756043956	6.5194245054945	7.57093653846154	7.24774516483516	7.6377689010989	6.47663120879121	6.58750681318681	5.99875846153846	5.29452373626373	6.30428868131868	7.89100142857143	5.17685010989011	6.43118571428572	7.33684736263736	6.78096137362638	6.87171274725275	6.91170241758242	5.73838956043956	6.68873615384616	7.67521362637362	8.26549219780219	6.28272626373626	6.23939582417583	7.05838197802198	5.98047637362638	6.43349439560439	6.61268714285714	7.61015186813187	4.17987296703297	3.83410648351648	3.88294021978022	3.59689164835165	3.46208076923077	5.42706142857143	3.77291978021978	3.50489769230769	3.63998664835165	3.25023307692308	3.94015934065934	3.29078467032967	3.75587714285714	3.44293846153846	4.97941021978022	3.65211439560439	3.66070164835165	3.39396785714286	3.28941252747253	3.44901428571429	4.58017362637362	3.58677868131868	3.65005417582418	3.68808373626373	3.53910549450549	3.61560021978022	3.65061285714286	3.78988692307692	4.42033923076923	4.00344054945055	3.45630703296703	4.09032527472528	3.74958703296703	3.64789681318681	4.13637043956044
212975_at                  	8.22037241758242	7.59040230769231	8.03016219780219	8.11982516483516	8.50720824175824	7.89684395604395	8.33446846153846	8.3107556043956	8.11484120879121	8.50066417582418	7.25497318681319	8.29029461538462	8.09682450549451	8.33642164835165	7.25669472527472	8.22656010989011	8.24609274725274	8.45472318681319	7.95197824175824	8.17867483516483	8.44775098901099	8.03739065934066	8.38676032967033	7.1585656043956	7.99073384615385	7.74653637362637	8.50568318681318	8.60250384615384	7.0999389010989	7.51816670329671	8.08355857142857	7.92101153846153	8.1969743956044	8.35588626373626	8.17083648351648	6.04409010989011	6.66338604395605	5.65762846153846	5.47921241758242	5.46452230769231	6.93134120879121	5.69529131868132	5.6749810989011	5.84637516483517	6.74873934065934	6.93858384615385	6.92321406593406	5.66380901098901	6.81205978021978	6.7693823076923	5.87927769230769	5.64968582417583	5.43252538461539	5.43927582417582	6.10027934065934	5.99806791208791	6.73823824175825	5.73872252747253	5.93389934065934	6.18741681318681	5.29760494505495	5.38875714285714	5.97190032967033	6.13885241758242	5.84571241758242	6.66219263736264	5.80691824175824	6.35966692307692	6.09701274725275	6.55460637362637
206068_s_at                	7.1561767032967	8.52128450549451	6.71955978021978	8.2210510989011	7.48938879120879	6.09606989010989	7.45892120879121	8.19080142857143	7.82289989010989	8.60971626373626	8.63345747252747	8.34492164835165	7.7693510989011	7.55276175824176	6.16250461538462	8.79358582417582	8.05057263736264	7.30856791208791	6.81420307692308	7.98991708791209	7.86554	8.09462901098901	7.15533241758242	6.47485857142857	6.25478637362637	8.16068	6.96393285714286	8.61266582417582	6.65526648351649	7.57480681318681	7.28458681318681	8.30564714285714	8.35240736263736	8.5459	7.69924252747253	4.42096785714286	5.95644631868132	4.74683516483516	3.8253789010989	4.99696186813187	5.51242989010989	4.17823417582418	4.33864043956044	4.42716978021978	5.23701857142857	3.88480461538461	3.69954659340659	3.84488406593406	3.40591384615385	5.46969637362638	3.91033582417583	4.60424989010989	3.5961945054945	3.85205384615385	3.30758153846154	5.68254461538462	4.15803307692308	3.46330956043956	3.84599626373626	5.29177901098901	4.51041934065934	4.18412901098901	4.41504076923077	4.98746307692308	4.02688648351648	3.57435681318681	4.19145362637362	6.07914142857143	5.39791340659341	3.55116087912088
221132_at                  	10.1501156043956	9.43431868131868	9.07973043956044	8.24455285714286	9.65895461538462	8.78877934065934	10.1772462637363	8.3201078021978	7.64721252747252	9.94298032967033	10.2461283516484	9.91674857142858	11.0033307692308	9.84807285714286	8.3574734065934	9.01197384615385	6.63968230769231	9.48151846153846	7.89538802197802	10.3186725274725	11.163471978022	10.2335662637363	7.18984923076923	9.51077802197802	9.43898571428572	9.67187362637362	7.36006758241758	9.40326296703296	9.10404197802198	8.73066538461538	11.079543956044	9.5079656043956	10.5411450549451	10.4121263736264	9.59799626373626	6.63356934065934	5.72488076923077	3.86766065934066	4.34731263736264	4.13552835164835	7.68090912087912	3.68632208791209	4.17539274725275	4.37431516483517	4.78203846153846	4.22133989010989	4.04121791208791	4.44955791208791	3.66186769230769	5.3314232967033	4.34542175824176	5.58365978021978	4.47021703296703	4.14805384615384	3.94310241758242	8.08824406593406	3.65163692307692	4.32634384615385	3.98405406593407	4.94066186813187	4.30302538461538	5.42800362637363	4.38954516483517	6.05317994505495	4.2096521978022	3.80969483516483	4.68787181318682	4.52256021978022	6.45376417582417	4.0974410989011
206093_x_at                	9.96450879120879	9.01630912087912	8.88096593406594	8.30721670329671	9.1776210989011	8.94547263736264	8.8822510989011	9.98016362637363	9.29447692307692	9.68102010989011	9.25594351648351	9.59164846153846	9.30025098901099	8.85280065934066	8.04221417582418	9.18930978021979	9.48442197802198	9.6378889010989	9.29940384615384	8.8822510989011	8.51207945054945	9.06750923076924	9.75080659340659	10.0009615384615	8.82038681318682	9.28644769230769	10.2280369230769	10.5959945054945	8.88170043956044	7.92129461538462	8.95229868131868	8.48607956043956	8.96896637362637	9.3325817032967	10.5302010989011	8.03167857142857	6.5121589010989	5.89736972527473	5.70136505494506	6.25654505494506	7.58975142857143	5.07736527472527	5.8626378021978	6.69788516483517	5.74600912087912	8.12918692307692	5.23379494505495	5.50410978021978	6.00857186813187	6.83460934065934	6.41904637362638	5.97613615384615	5.52148010989011	5.20381505494505	6.00831016483516	7.39464824175824	5.61509186813187	5.44223483516484	5.43167318681319	6.15658521978022	5.67625615384615	5.49285747252747	6.3284143956044	6.18724164835165	7.78786703296703	6.01535373626374	5.37320769230769	5.78699406593406	6.08985736263736	6.35107835164835
206701_x_at                	9.66055142857143	8.26447032967033	8.61773846153846	7.51981131868131	8.64053967032967	8.33117560439561	9.08172956043956	7.75468813186813	7.89337983516483	9.02376296703297	7.61610879120879	8.94586098901099	8.45561516483517	8.62434857142857	7.68473945054945	8.42209241758242	6.77909153846154	8.89389615384615	7.11810516483516	9.54283241758242	9.62050615384615	8.67214175824176	8.73881736263736	6.77886802197803	8.62672406593406	9.03647769230769	7.15245692307693	7.84433472527473	7.86956417582418	6.94946593406593	8.67272626373627	8.44165318681319	9.05525351648352	9.04434802197803	7.64880065934066	6.08512978021978	5.16505615384616	5.53471978021978	4.47356494505495	4.68458692307692	6.75478681318681	5.36811461538462	4.65541527472528	4.6528443956044	5.97283758241758	4.80529197802198	5.44083164835165	4.80288879120879	5.29946197802198	5.52749857142857	5.16210758241758	5.65266873626374	4.45265835164835	4.44840725274725	4.74157296703297	5.91262604395604	5.31360120879121	4.69292076923077	4.88262714285714	4.82398065934066	5.13676681318681	4.91790340659341	6.21927032967033	6.6273421978022	5.56313060439561	4.62832439560439	4.89225428571429	5.37937615384616	4.58525747252747	6.39702417582418
230132_at                  	8.35253131868132	7.16082989010989	8.05068802197802	7.67958307692307	6.89728648351649	8.35667593406593	7.82815571428571	7.69885901098901	8.21241307692307	7.63564043956044	6.49747901098901	7.40863527472527	7.67350648351648	7.25104032967033	7.77953439560439	8.69366076923077	8.12896010989011	7.93184681318681	7.46238989010989	7.52735527472527	7.06868021978022	7.79729252747253	8.24481934065934	8.09726846153846	7.87615637362637	6.93566494505494	8.30695296703296	7.18547164835165	7.63419648351648	7.24878703296704	7.56051010989011	7.71052120879121	7.78851384615385	6.93173021978022	7.59478252747253	6.25595736263736	5.88946989010989	5.28956549450549	4.82554362637362	4.56259879120879	6.02087362637362	5.25055604395604	5.46499208791209	5.82229736263736	5.55698472527472	5.11952956043956	6.2410956043956	5.29002967032967	5.47129450549451	6.50328340659341	5.47938208791209	5.18470252747253	5.21403186813187	5.46793120879121	5.52670571428571	5.89778626373626	5.97072142857143	4.85295428571429	4.79332923076923	5.13403747252747	5.26245395604396	5.79766846153846	6.3110571978022	6.16143703296703	5.68930197802198	4.87575065934066	4.51799565934066	5.12243362637363	6.11980692307692	6.40286120879121
219719_at                  	8.8973489010989	9.1588167032967	7.7723921978022	9.03378395604396	8.30284681318681	8.9114467032967	8.66593148351649	9.18389208791209	8.57964598901099	8.56652769230769	7.02054846153846	8.95200593406594	8.17126307692308	7.71353747252747	7.61746395604396	8.53585307692308	9.26202131868132	8.83497120879121	8.87242791208791	8.82469186813187	7.5477234065934	8.26936175824176	8.58921615384615	8.12812032967033	8.95103395604396	8.60729065934066	8.19025340659341	9.17805439560439	7.05854549450549	8.25846263736263	7.92405214285714	8.05023285714286	8.42774285714285	7.10139989010989	7.86104285714286	6.54132478021978	5.82001912087912	5.54175296703297	5.49572450549451	5.11483	6.36431395604396	6.12037032967033	6.1786778021978	5.09676538461538	5.24098967032967	6.60440021978022	5.58750472527472	5.54996054945055	5.81945032967033	7.05879472527473	5.76851241758242	5.42266395604395	5.38120197802198	5.95634318681319	5.50238835164835	6.79946736263736	5.15493461538461	5.3625954945055	4.63024142857143	5.52781527472527	5.2873345054945	5.76447351648351	5.83375494505495	6.71091879120879	5.85216	5.26613219780219	5.22844994505495	5.71098142857143	6.04500769230769	7.53218846153846
226101_at                  	8.8346489010989	7.71030307692308	8.16954428571429	6.91952527472527	7.79595241758242	8.36236351648352	7.33725318681318	7.86062054945055	8.22310032967033	7.74128384615385	6.69472901098901	8.01832461538462	7.58181406593406	7.93947010989011	6.73085857142857	7.87130626373626	7.35812142857143	8.18749076923076	7.45235615384615	7.82782956043956	7.01250923076923	7.56799956043956	8.62187538461539	6.92952087912088	7.53699747252747	7.46101615384616	7.63966406593407	8.05532950549451	7.25124813186813	7.04391681318682	7.63407857142857	8.00124901098901	7.40115021978022	7.89639835164835	7.78499626373627	5.91552285714286	6.03291016483516	5.70753494505495	5.13547923076923	4.3467045054945	6.54836164835165	5.55186747252747	4.96385175824176	5.48517857142857	6.41553857142857	6.20999450549451	5.37671703296703	4.81083318681319	6.02047263736264	6.11522505494505	5.7633554945055	5.51888021978022	4.36397428571429	4.92772868131868	5.23303274725275	5.96218813186813	5.19868637362637	5.39626571428571	5.81887670329671	5.77301505494506	5.20858956043956	4.91353076923077	5.1821710989011	5.75327527472528	5.48723692307692	4.33571659340659	5.52863307692308	5.78404736263736	5.1623765934066	5.95808747252747
201890_at                  	5.50495670329671	5.60692648351648	6.59966868131868	7.15234879120879	5.8752056043956	6.35548258241758	5.02721681318681	5.32362175824176	6.34628461538462	5.2027821978022	5.98536983516484	5.90796714285714	5.31406923076923	5.17321791208791	6.84942505494505	4.97962472527472	6.59636989010989	6.12714406593407	6.4467671978022	6.45089615384615	4.50681197802198	5.84838318681319	5.79840692307693	5.46515571428571	5.24139274725275	5.80167505494505	5.52929494505494	5.05473120879121	5.19968131868132	6.62776131868132	5.32864582417582	6.28212417582418	5.46417296703297	4.99950934065934	4.74886115384615	8.89454285714286	7.23213791208791	11.1196076923077	10.9079879120879	10.2249450549451	8.26936175824176	9.04741978021978	10.2975241758242	10.271921978022	10.6040142857143	7.84385769230769	8.08876494505494	9.99286901098901	10.0842242857143	8.62491296703296	10.0078346153846	10.2526938461538	9.35790230769231	10.3856	9.55266615384616	10.0745368131868	9.60448978021978	10.7120956043956	9.77896395604396	9.39240879120879	10.6380637362637	9.99149483516484	8.89151296703297	10.7691901098901	8.59345230769231	7.54812	10.533078021978	9.61751054945054	8.43038252747253	9.35154780219781
219452_at                  	7.59861879120879	8.22158846153846	7.29122868131869	8.25244846153846	7.71813472527472	7.66588648351648	7.55542450549451	7.34743340659341	7.34544664835165	6.98288230769231	7.5835365934066	7.08680516483517	7.62892967032967	8.1609678021978	7.29083912087912	7.53270384615384	8.17515032967033	6.4786178021978	8.66176945054945	7.03377692307692	7.38772560439561	8.01486714285714	8.11042956043956	6.9408676923077	7.88073483516483	7.5353067032967	7.80546758241758	7.61524120879121	6.53634175824176	8.7821721978022	7.43871428571429	8.12454560439561	7.62828351648352	7.3124754945055	6.42322505494506	5.83095362637363	5.24687472527472	4.38347912087912	4.10236357142857	4.47178461538461	6.0325843956044	4.68837769230769	4.35041747252747	4.4420278021978	5.04762906593407	6.89320670329671	5.61936472527472	5.78365692307692	5.59934813186813	5.78856692307692	5.1557210989011	4.94341351648351	4.42229032967033	4.37670263736264	4.34398494505494	6.01429362637363	5.18171340659341	4.33161895604396	4.88480043956044	5.21897307692308	4.2714465934066	5.31611978021978	5.9403089010989	5.36956472527473	4.81274692307692	4.98598659340659	5.08109604395604	5.27530549450549	5.02355021978022	4.98195989010989
217871_s_at                	11.1664351648352	11.3765769230769	10.8202956043956	11.4894087912088	10.749421978022	10.9607428571429	10.785432967033	11.2664879120879	11.2129098901099	10.9492978021978	11.1503659340659	10.8906648351648	11.2917159340659	11.031567032967	11.317256043956	11.0711637362637	11.5477263736264	10.8243604395604	11.0522659340659	11.2178835164835	11.2449868131868	10.8388175824176	11.1196076923077	11.1211549450549	10.7149324175824	11.1322967032967	11.1026406593407	10.6736472527473	11.368156043956	11.268221978022	10.7736505494506	10.5562263736264	11.0147472527473	11.0161945054945	11.2097417582418	11.7859406593407	12.4427428571429	12.9179802197802	13.2111989010989	13.0044516483516	12.7461450549451	13.5109065934066	12.5970450549451	12.9035362637363	12.0532835164835	12.0635527472527	11.9326516483516	12.8637494505495	12.8199406593407	12.0462791208791	12.6061417582418	13.075656043956	12.6973373626374	13.3982593406593	12.3191274725275	12.9465747252747	12.7599043956044	12.7359076923077	12.5655527472527	12.5655527472527	13.1769615384615	12.8934461538462	12.6790637362637	12.8845175824176	12.2735824175824	11.9382857142857	12.7020615384615	12.5479989010989	12.5519956043956	12.675510989011
227874_at                  	9.9371023076923	8.58019934065934	9.12629241758242	7.98475978021978	8.97556692307692	8.23667697802198	9.46633648351648	9.53540362637363	9.60073494505495	9.93570076923077	8.38436340659341	8.90386868131868	9.18389208791209	8.96034186813187	8.76382164835165	9.46674274725275	8.71985296703297	9.42620747252747	8.12006560439561	9.24780329670329	9.54745296703296	9.58492967032967	9.35840032967033	8.99351230769231	9.45275967032966	9.35020681318681	8.91512505494505	9.76424978021978	8.51009241758242	7.98475978021978	9.29447692307692	8.13290192307693	9.16801923076923	9.09429065934066	9.51684230769231	7.42395912087912	5.29254857142857	5.67516956043956	4.60569043956044	4.06574395604396	7.65485197802198	4.90172461538462	4.7822921978022	4.15308868131868	5.60558	5.53986065934066	5.4765143956044	5.16014483516483	4.62908362637362	7.04236967032967	4.80198824175824	5.33375582417582	5.05945983516484	4.13038263736264	4.96094065934066	6.38796648351648	4.59515043956044	4.51826230769231	4.48965247252747	5.33164214285714	4.71856648351648	4.77039043956044	5.86625824175824	5.57783456043956	6.24912758241758	4.44243769230769	5.12819912087912	5.34430197802198	4.90603670329671	7.89393637362638
221133_s_at                	11.1149307692308	10.858989010989	10.1361469230769	9.84040967032967	10.463210989011	9.53149406593407	10.6027714285714	9.83817681318681	9.2402978021978	11.3012483516484	10.9329208791209	10.721178021978	11.5636406593407	10.5134494505495	8.93951978021978	10.2030208791209	8.77853450549451	10.4376296703297	9.80474197802198	10.8486395604396	11.5334549450549	10.8256615384615	8.44412934065934	10.3899912087912	9.95678857142857	10.3307934065934	8.85346725274725	10.7262956043956	9.64162197802198	9.71213615384615	11.5723197802198	10.6490527472527	11.2212318681319	11.4787967032967	10.5718879120879	7.70924461538462	6.33437538461538	3.89691791208791	3.94865516483517	3.77508714285714	8.6004289010989	3.64557714285714	4.21281945054945	3.83714917582418	4.10588	5.7162810989011	4.80057978021978	4.62662505494505	3.89669142857143	6.43288714285714	4.35875835164835	5.9764160989011	4.35960450549451	3.85308164835165	4.05210703296703	8.9321267032967	4.10261582417583	3.95939054945055	3.66389516483516	5.34561076923077	3.84165725274725	6.09606989010989	4.60183846153846	6.58863582417582	4.51966593406593	4.35524285714286	4.21395593406593	4.78944934065934	6.58053384615385	4.0417871978022
229529_at                  	8.14363428571428	7.44727989010989	6.83160197802198	7.3506332967033	7.20422274725275	6.82291054945055	6.99125	7.20362956043956	7.29507164835165	7.91181483516483	6.93297923076923	6.79101208791209	6.85176043956044	7.41816505494506	7.3558421978022	8.70800483516483	6.86962758241758	7.52364736263736	7.29163582417582	7.63300791208791	8.23110725274725	7.17017615384615	7.22107395604396	8.10755923076923	7.7355432967033	6.31003626373627	8.32736318681319	8.00944406593407	6.67656395604396	7.24343010989011	8.30540648351648	6.87777879120879	7.23578142857143	8.59499758241758	7.3902645054945	5.33023252747253	4.94420857142857	4.6548867032967	5.26459582417582	4.60656835164835	5.24286489010989	4.99217956043956	5.29440087912088	4.89807384615385	5.03938626373626	5.51749538461539	5.2148721978022	4.9038410989011	5.32127351648352	5.18424923076923	4.87613747252747	4.98464571428572	4.89464274725275	4.90812791208791	4.48022434065934	5.22638098901099	5.22317076923077	4.88072846153846	5.00278087912088	5.01800615384615	5.02561417582418	5.39349362637363	5.54648384615385	5.51110087912088	4.64729857142857	5.25669307692308	5.22824582417582	5.04249791208791	5.46173362637363	5.04429175824176
232122_s_at                	8.34914032967033	8.88710428571429	8.28917538461539	9.01800456043956	9.01491131868132	7.06317582417582	8.48965274725275	8.81987725274725	8.77853450549451	8.84852615384615	8.43788516483516	8.60638637362638	8.79580758241758	8.84069483516484	8.55380164835165	9.00790373626373	9.23525769230769	8.76868373626374	8.67671637362637	8.96140417582418	8.63406043956044	9.05525351648352	8.56957637362638	7.87903736263736	8.32605164835165	8.75627153846154	8.95200593406594	9.01820318681319	5.78515604395604	9.06750923076924	8.90263532967033	8.48020362637362	9.58492967032967	9.30858989010989	8.87313	4.91840318681319	6.8347921978022	3.80874802197802	3.46055912087912	4.00790835164835	6.66127912087912	4.7083617032967	3.30252483516484	4.12205769230769	4.47944494505495	4.74335604395604	3.8625156043956	4.13014659340659	7.5118278021978	5.2475078021978	3.91895131868132	4.86238087912088	3.93261010989011	3.53485868131868	4.171165	5.75639098901099	4.26058252747253	3.47975120879121	3.83393131868132	5.23613175824176	3.77918274725275	4.93368296703297	5.10810340659341	5.65697153846154	6.21157967032967	4.29167703296703	4.05796406593407	4.24901505494506	3.94198384615385	6.47294791208791
225655_at                  	4.41688373626373	4.40274142857143	5.0206789010989	5.23628241758242	4.70015483516483	5.11128263736264	4.13766340659341	4.39107934065934	5.31351708791209	4.47744175824176	4.79151868131868	4.68387098901099	4.71652725274725	4.55150164835165	5.82164	4.38733032967033	5.29177901098901	5.03938626373626	5.17046362637363	5.27124648351648	4.32711835164835	4.89619340659341	5.02016461538462	5.08687703296703	4.10392340659341	4.73354153846154	4.74904703296703	4.26101725274725	4.81464538461539	5.21977252747253	5.16860428571429	4.63981923076923	4.58509505494505	4.6410978021978	4.60109098901099	8.7273421978022	6.50310483516483	8.87377406593406	9.39582890109891	9.90961010989011	7.13826681318681	7.74984945054945	9.29730835164835	8.99276076923077	8.29455989010989	6.92971274725275	6.9977078021978	8.23891846153846	7.58592439560439	7.27790362637363	9.19569967032967	8.59526120879121	8.47016901098901	9.28335725274725	8.69668648351649	7.77999527472527	7.80287626373627	9.27874208791209	8.67582406593407	7.4374356043956	9.08389241758242	9.02265703296703	7.13481461538461	8.48380472527472	7.74281846153846	7.4263843956044	9.3207032967033	7.94972362637363	7.53933901098901	8.14727582417582
209408_at                  	5.19325494505495	5.05675252747253	5.60152054945055	5.63185483516483	4.9657510989011	5.42129747252747	5.1791489010989	5.21928296703297	5.2871021978022	4.37598549450549	5.25451274725275	4.40710087912088	5.06770252747253	4.88236428571429	5.38658406593407	4.79880934065934	5.57156758241758	4.93259582417582	5.89095241758242	5.31740175824176	3.97402263736264	5.40434912087912	4.98934362637363	5.56229857142857	5.11187	4.85694296703297	4.58079395604396	4.80622934065934	4.80971956043956	6.11802516483516	5.22853340659341	4.83217373626374	5.06558857142857	4.41710197802198	5.08978824175824	8.08422318681319	7.10080252747252	10.5043285714286	8.53797560439561	8.58774505494505	6.92055076923077	8.14539846153846	9.95867945054945	8.48356307692308	8.10112934065934	7.03812626373626	7.68409472527473	8.77618538461538	8.27746527472527	8.12739043956044	7.47538153846154	8.87989703296703	8.90386868131868	8.82202604395604	9.39149076923077	8.51235516483516	7.95754274725275	9.0920834065934	8.46232813186813	7.93582681318682	8.18015505494505	8.79948758241759	7.97723192307692	9.24238241758242	6.98048340659341	7.19509802197802	9.5506354945055	8.55912868131868	7.68514527472527	7.48832813186813
219230_at                  	12.0832582417582	11.6151747252747	8.95538626373626	10.9890241758242	10.7552879120879	6.89950945054945	9.41872241758241	11.428521978022	10.9180692307692	11.2330681318681	7.38119472527473	11.0725175824176	10.1174802197802	11.0203384615385	8.30356846153846	11.9408153846154	11.5832637362637	9.44770846153846	11.0639923076923	10.5266642857143	10.7065153846154	10.7622593406593	11.8562967032967	8.44806208791209	11.3798252747253	11.2243945054945	10.2055877472527	10.4172406593407	7.21306197802198	10.2044946153846	10.896067032967	11.3781714285714	11.6111714285714	11.2097417582418	9.81405769230769	7.23691516483517	5.30253054945055	4.55645021978022	4.71969516483517	4.52150835164835	7.22547516483516	6.01836131868132	4.65777521978022	4.55405450549451	4.35884901098901	6.42962923076923	4.32475967032967	4.63545857142857	3.96305131868132	6.04843373626373	9.98879516483516	5.35358593406593	4.43201494505495	3.58434802197802	4.3054767032967	6.16513494505494	4.86514802197803	4.12971857142857	4.77928791208791	4.4869410989011	4.78501615384616	4.49312285714286	5.61991604395605	6.20234758241758	5.46738912087912	4.52089494505495	5.09807912087912	4.54866076923077	4.72641483516484	5.04868406593407
230360_at                  	8.93136395604396	8.7597967032967	6.77661813186813	6.80061593406593	9.51325153846154	8.2295767032967	9.15558582417583	7.99298153846154	8.49954582417583	7.89763956043956	10.490043956044	8.41783186813187	8.98139043956043	9.14047274725275	7.1542567032967	7.65074956043956	8.30953725274726	7.76668813186813	9.36154549450549	8.46053241758242	8.0118389010989	9.84523714285715	8.05941318681319	8.07262307692308	8.14654098901099	8.16044956043956	9.25167824175824	7.65197021978022	8.56828483516483	9.69571142857143	8.84517604395605	8.71893846153846	10.0310636263736	9.43666252747253	8.32678417582418	5.75552604395604	5.85692846153846	4.90208142857143	4.67797505494505	4.70126582417582	6.89912263736264	5.03044945054945	4.7427978021978	4.92338813186813	6.2681565934066	6.70755472527472	4.97967895604395	5.84287010989011	5.65049813186813	5.22191406593407	5.45343637362637	6.47345494505494	5.26062736263736	4.71969516483517	4.72917692307692	7.10403912087912	5.12449681318681	4.4674521978022	5.00913549450549	5.26870879120879	4.59799197802198	4.69020307692308	5.51410076923077	5.2597056043956	5.50851846153846	4.79332923076923	5.06287208791209	5.25937098901099	4.60419126373626	5.16043032967033
215918_s_at                	8.76353791208791	7.69414340659341	8.61358615384615	6.80662021978022	8.23170692307692	7.21691406593407	8.54770692307692	7.91181483516483	7.51971285714285	8.04172	6.66584461538462	8.49678494505494	8.10336494505495	8.32736318681319	6.73807395604395	7.41131043956044	8.01755164835165	8.28139131868132	7.49045648351649	8.06660901098901	8.41037274725275	8.23943648351649	7.99224021978022	6.37609901098901	8.12314362637363	7.89599021978022	8.28248835164835	7.87719131868132	6.5791543956044	8.11784241758242	7.88382324175825	7.78019494505495	8.66934274725274	8.57386384615385	7.5474845054945	5.17495571428572	4.4452743956044	5.27049945054945	5.55471483516484	4.99750230769231	6.69729692307692	5.5607321978022	4.41279527472527	4.62550197802198	4.88212626373626	4.49256296703297	4.82744593406593	4.89919395604395	5.47176241758242	5.56160197802198	4.43342956043956	5.28800648351648	6.29831593406594	4.98356450549451	5.64826703296703	5.48624197802198	5.96484494505495	7.42395912087912	4.72185582417582	4.54544395604396	5.72595142857143	4.74860516483516	5.22130846153846	5.46547450549451	4.58933978021978	5.93170450549451	5.02355021978022	5.77561131868132	4.83424175824176	5.11253428571429
1556037_s_at               	7.17247593406593	7.32265489010989	7.66113296703297	6.25208021978022	6.5045282967033	5.90583923076923	7.43918010989011	7.64259637362638	8.04621802197802	6.81325076923077	8.07404032967033	7.90054021978022	7.49939703296703	6.18245736263736	7.9164467032967	8.12138313186813	6.71732868131868	7.8724376923077	6.31929494505494	7.52795758241758	6.1260489010989	7.84433472527473	6.61423395604395	5.66088318681319	7.69076197802198	7.81759010989011	8.48332934065934	6.80132142857143	6.39992296703296	7.06138967032967	6.61105175824176	6.76262087912088	6.77535197802198	7.56340824175824	7.66198593406594	4.76552472527472	3.89492461538462	3.72687989010989	3.45702681318681	4.44850373626374	6.22538505494505	4.16815527472528	4.13165549450549	3.69313967032967	3.70830593406593	4.71476796703297	3.37638593406593	4.17589428571428	3.65427230769231	4.77536252747253	3.40522285714286	3.42628406593407	4.0648967032967	3.90891406593407	3.37393032967033	5.59946241758242	3.59831516483516	3.42909461538462	4.98075967032967	3.60748307692308	3.83902483516484	5.35816582417582	5.30903626373626	5.43495967032967	4.13143725274725	3.45281978021978	4.28292945054945	5.04440978021978	4.11899032967033	3.3776267032967
213715_s_at                	8.68808175824176	7.61428648351649	7.90696538461539	7.16622483516484	7.60353714285714	8.37984626373626	8.29938516483517	8.5473943956044	8.69732681318681	7.99054472527473	7.41365362637363	8.91438098901099	7.97139967032967	7.96300681318681	7.17435	8.37109868131868	8.36213175824176	8.31954241758242	7.80189175824176	7.63669175824176	8.59800961538462	8.62101637362637	8.91322516483517	6.97267692307692	8.78778824175824	8.39896813186814	8.63345747252747	8.49493774725275	6.42858670329671	6.83808648351648	7.78129736263737	6.71283598901099	8.15540285714285	6.55054428571428	7.80997703296703	6.4926	5.33452186813187	5.03828637362637	4.59931912087912	5.22602065934066	6.38356703296703	5.48960956043956	4.68828131868132	5.15556362637363	5.48295065934066	6.21323318681318	6.24642362637363	5.18722120879121	5.02334758241758	5.4880878021978	5.39867791208791	4.83339406593407	4.87133582417582	4.91645021978022	4.89570934065934	5.82828406593407	5.31452549450549	4.92047274725275	5.03651934065934	5.0532756043956	5.08656247252747	5.17274120879121	5.71130461538461	5.72865285714286	5.20719758241758	5.26613219780219	4.89781769230769	5.34780571428571	5.37068714285714	7.16515967032967
206651_s_at                	9.09625483516484	10.0303849450549	10.102208956044	7.69327065934066	10.2813637362637	7.88803120879121	10.1693207692308	9.62628340659341	10.9890241758242	8.17378989010989	10.4833945054945	9.54429648351649	8.28817956043956	10.3899912087912	9.59215340659341	10.8063626373626	8.83955681318681	10.1792586813187	9.02820714285714	10.4643626373626	9.48107758241758	9.59012989010989	9.78652692307692	8.4904932967033	8.9157854945055	9.85110384615385	9.74940043956044	9.12897186813187	8.46714263736264	8.17966340659341	9.26975978021978	9.39022329670329	10.924921978022	9.34792813186813	8.40957879120879	6.24692126373626	4.85343274725275	3.85154659340659	3.55449840659341	3.66654291208791	7.89763956043956	3.8810067032967	3.58830582417582	3.77814384615385	3.8721367032967	6.01599175824176	4.06413065934066	3.7967443956044	4.52464318681319	8.87443945054945	3.73653615384615	4.66173362637363	3.77217318681319	4.03453994505495	3.74490747252747	7.43239934065933	3.6971854945055	3.99488186813187	4.00666862637363	3.98178362637362	3.78512615384615	6.62501131868132	4.93618126373626	5.34553285714286	4.45783714285714	3.74724252747253	3.91303527472528	4.47565351648352	4.12205769230769	4.0648967032967
227178_at                  	8.44691175824176	7.67649824175824	8.00431164835165	7.38583197802198	8.37300923076923	7.31830835164835	8.16357714285714	7.86274406593407	8.15491461538462	8.3373043956044	8.22559967032967	8.2198834065934	8.51602725274725	8.64438681318682	7.93604054945055	8.01252736263736	7.21131813186813	8.31053956043956	7.87992	8.24393065934066	8.90850241758242	8.47216945054945	7.96300681318681	8.01090478021978	7.97481406593406	7.7337221978022	8.19900989010989	8.2615656043956	8.26229813186814	7.84956516483517	8.7506478021978	7.87858417582418	8.44631461538462	8.14514494505494	8.0710345054945	6.38210510989011	6.25494472527472	4.86139131868132	5.25881604395604	5.9582645054945	6.62162901098901	5.51444087912088	6.07803351648352	5.03994813186813	5.44020175824176	7.37021648351648	5.54494879120879	5.79951307692308	6.1363732967033	6.97580175824176	5.61645087912088	6.31261494505495	5.30137142857143	5.1672	6.82021538461539	6.51041241758242	5.37254285714286	4.82017340659341	5.56783054945055	5.92459901098901	5.07382307692308	6.34512318681319	5.80023417582418	5.81615840659341	6.22467186813187	5.97976956043956	5.96284516483516	6.00511747252748	6.50388131868132	6.08943065934066
1556579_s_at               	7.84291505494506	7.02377252747253	6.64614934065934	5.92409945054945	6.12516032967033	6.53842	7.20263032967033	7.46037384615384	6.96007164835165	7.62648978021978	7.70289164835165	6.22369175824176	6.95000010989011	5.67950428571429	6.04125604395604	6.42799769230769	7.28111395604396	6.67102406593407	6.01394912087912	5.82941681318681	7.05838197802198	7.26511923076923	6.36253252747253	6.79217065934066	7.6286543956044	6.31122368131868	7.08055351648351	7.28440076923077	4.67629615384615	6.10372230769231	7.08886824175824	5.70648263736264	5.92947241758242	7.16209406593406	7.21844131868132	4.21060461538462	3.60991197802198	4.67835901098901	3.92282	4.19295835164835	4.68545434065934	3.85064340659341	4.88480043956044	4.23583307692308	4.70094659340659	3.90769032967033	3.78009681318681	4.72907560439561	3.35741593406593	3.50120098901099	3.45281978021978	5.40735307692308	4.55879384615385	3.95766527472528	3.86737395604396	4.69381263736263	3.73638505494505	3.92131626373626	4.32688791208791	3.57896412087912	4.15087824175824	4.09519252747253	3.39594593406593	3.57704087912088	3.56353989010989	3.25251978021978	5.04084010989011	4.31720626373626	3.84311956043956	3.72827252747253
AFFX-HUMGAPDH/M33197_M_at  	12.4866681318681	12.3628461538462	12.4250681318681	12.2540131868132	12.2507494505494	12.5294681318681	12.148710989011	11.833289010989	12.0404846153846	12.1217956043956	12.4553989010989	12.1286362637363	12.3922175824176	12.396232967033	12.8637494505495	12.0558967032967	11.7248692307692	12.1450692307692	12.2507494505494	12.4819868131868	12.1815384615385	12.1989967032967	12.2808494505495	12.4118395604396	12.2137791208791	12.1627571428571	11.9266824175824	12.1143406593407	12.4642296703297	12.4118395604396	12.2507494505494	12.2438615384615	12.225089010989	12.0635527472527	12.141578021978	13.4372956043956	13.4952153846154	13.533332967033	14.1719758241758	13.9890879120879	13.6531241758242	13.9890879120879	14.0135043956044	13.5222571428571	13.5109065934066	13.3281681318681	13.3240615384615	14.0913758241758	13.7532983516484	13.2703472527472	13.0549604395604	13.6088043956044	14.3432208791209	13.6841659340659	13.5167923076923	13.9353956043956	13.731021978022	13.9446681318681	13.7722659340659	13.5851714285714	13.9890879120879	13.6403384615385	13.7722659340659	13.4121857142857	12.2365703296703	13.5394032967033	13.4790648351648	13.4897549450549	13.3982593406593	13.4171417582418
204026_s_at                	5.25669307692308	6.67158692307692	6.28111131868132	7.38440054945055	6.22327758241758	6.36680593406593	4.84763802197802	5.47606362637363	6.42248065934066	5.76623747252747	6.21095714285715	5.82721923076923	5.95990362637362	5.88674153846154	7.06918307692308	6.04682494505495	7.11483769230769	5.92723648351648	6.40691175824176	6.43037054945055	5.72985802197802	6.21055747252747	6.32939054945055	5.77663681318681	5.20616247252747	5.92143879120879	5.15618230769231	5.54669054945055	3.94989637362637	7.48401494505494	6.08650736263736	6.35973362637363	6.21459043956044	5.96883131868132	5.0552732967033	8.63438791208791	7.95266054945055	9.69095659340659	9.36247846153846	9.0991004945055	7.29342230769231	8.51235516483516	10.0458045054945	9.64451032967033	9.94740857142857	7.69906285714286	7.93459197802198	8.57918967032967	8.57117824175824	8.76748142857143	9.05634835164835	9.15352626373627	9.17662670329671	9.37268241758242	9.87733406593407	9.5603121978022	8.42948769230769	9.89414956043956	8.95168824175824	8.44806208791209	9.15191747252747	9.35399263736264	7.97093296703297	9.8159189010989	8.78392736263736	7.02153747252747	9.76249406593407	9.06714241758242	8.80655758241758	8.79373065934066
1554408_a_at               	5.54582362637363	6.70575329670329	6.11467868131868	6.49517054945055	5.91108802197802	5.93469285714286	6.0171156043956	5.63018615384615	6.12403296703297	5.86857384615385	5.62839494505494	6.27732659340659	5.62166428571429	5.52687461538462	6.28814197802198	6.37157098901099	6.3308867032967	6.00915736263736	6.24455263736264	6.22157417582418	5.60475582417582	6.24174835164835	5.87390505494506	6.08705824175825	6.60262417582417	5.69581230769231	5.89661791208791	5.81925021978022	5.08873208791209	6.56776054945055	6.27635153846154	6.25297307692308	5.83703461538462	5.61824428571428	5.1314156043956	9.67054098901099	8.66398230769231	9.87613604395605	9.95808956043955	9.45234615384615	8.25657901098901	8.36264571428572	10.1751962087912	8.89979494505494	9.4347767032967	7.54892571428571	8.69520384615385	8.46103252747253	8.65588736263736	7.61150758241758	8.87048637362637	9.16721186813187	9.24699186813187	10.6080934065934	8.57317549450549	9.15234230769231	8.14990043956044	10.5370483516483	9.57043945054945	8.08342065934066	9.67289714285714	10.1147750549451	7.74185340659341	9.46246021978022	8.64153472527472	8.39896813186814	9.8728156043956	8.80713956043956	9.06601318681319	8.35335725274725
228967_at                  	8.36345252747252	7.90901472527472	8.92004087912088	8.21148824175824	7.79275813186813	7.97113835164835	8.74304175824176	8.33321395604395	8.58033571428571	8.58481241758242	7.91028571428572	8.90659769230769	7.83205208791209	8.2108043956044	7.05702494505494	7.94643978021978	7.94355637362637	8.90209692307692	7.95754274725275	7.96351681318681	7.9962456043956	9.17295395604396	8.40905230769231	7.34893318681318	7.83008769230769	8.04671593406593	8.85092571428571	8.77618538461538	8.31487659340659	7.76863065934066	7.79549879120879	7.73890978021978	7.66758714285714	7.85490384615385	8.38383582417582	6.89490197802198	5.76039681318681	5.47839241758242	5.99806791208791	6.12620417582418	6.94982208791209	6.58212252747253	6.76903879120879	5.95634318681319	5.89095241758242	6.48292527472527	5.73125483516483	5.84730076923077	6.37140142857143	6.33128	5.50682978021978	6.15080681318681	7.57461175824176	5.66916703296703	5.76222879120879	6.53396516483517	6.39844571428571	7.3073321978022	5.86237686813187	5.8411634065934	6.51193758241758	6.4464489010989	6.16143703296703	6.04345274725275	6.19469637362638	6.2243056043956	6.60287208791209	6.04843373626373	6.29939978021978	6.92720252747253
222717_at                  	10.1524462637363	9.50979318681318	9.43666252747253	9.1776210989011	9.68044593406594	9.12857274725275	10.721178021978	10.3565714285714	9.51133659340659	10.327332967033	9.59750879120879	10.9318681318681	9.85473505494505	9.34523604395605	8.75008483516483	9.89981285714286	9.753255	10.3626296703297	8.92069098901099	9.56164598901099	10.4597681318681	10.5242461538462	9.69962296703296	9.49391824175824	9.72765802197802	10.0198764835165	9.73068296703297	9.93204670329671	8.56011043956044	9.47392373626374	10.3936813186813	9.83235285714286	10.5917351648352	10.4092527472527	10.1729647252747	6.74434901098901	7.28948824175824	6.57864747252748	5.26077879120879	7.37875043956044	8.77853450549451	5.78072945054945	6.36334340659341	6.14962098901099	5.94192824175824	7.09075923076923	5.43668637362637	5.51923318681319	5.35744923076923	7.42357142857143	6.85839131868132	7.14181505494506	4.75466021978022	5.94824505494505	5.12449681318681	8.40567175824176	5.17109120879121	5.26659604395605	5.70860582417582	6.24070912087912	5.10567043956044	6.00677758241758	6.17178714285714	6.36431395604396	7.72939263736264	6.20999450549451	6.07160186813187	5.85303208791209	5.64958263736264	7.47690296703296
209710_at                  	9.97493923076923	8.74432714285714	8.33762	8.15114131868132	8.77789076923077	8.18895472527473	8.5331489010989	8.90968769230769	8.61882714285714	9.12546406593407	7.64087406593407	9.82485912087912	8.87278010989011	8.37947505494505	7.74700868131868	9.06483049450549	8.97844813186813	7.94449098901099	8.59676791208791	8.11241516483517	8.4942478021978	8.71955857142857	9.01159912087913	8.56198604395604	9.20840318681319	8.87989703296703	8.7026145054945	9.22862868131868	8.00830934065934	7.91093362637362	8.87048637362637	8.80072252747253	8.7172654945055	9.03535637362637	8.85795857142857	7.14233868131869	6.67756032967033	6.04283483516484	6.87171274725275	6.78440967032967	7.10179164835165	6.64269186813187	6.09477263736264	6.48594857142857	6.5111978021978	7.1921232967033	7.35297505494505	6.45834230769231	6.04755010989011	7.62062395604396	7.44751901098901	5.98131648351648	6.09701274725275	7.06757472527473	6.94321758241758	6.50291879120879	6.66950175824176	6.39498736263736	6.18094802197802	7.53956406593407	7.12012186813187	6.25068758241758	6.31021857142857	6.74321912087912	7.26915417582417	6.61085648351648	6.0584889010989	5.48790186813187	6.58826901098901	6.92639197802198
212581_x_at                	12.8488494505495	12.5834076923077	12.6199340659341	12.7461450549451	12.3677901098901	12.7336258241758	12.1687637362637	12.520943956044	12.3794549450549	12.2609230769231	12.6665263736264	12.3114802197802	12.5564912087912	12.5479989010989	13.0596131868132	12.4595351648352	12.4642296703297	12.4210582417582	12.6484967032967	12.6061417582418	12.3489978021978	12.400132967033	12.8032324175824	12.5166714285714	12.4285373626374	12.4469527472527	12.4553989010989	12.5338175824176	12.7955923076923	12.6527725274725	12.3884934065934	12.3843307692308	12.3794549450549	12.2099120879121	12.4512296703297	13.6145835164835	13.4790648351648	13.5793681318681	14.2419945054945	13.9544461538462	13.7246978021978	13.8139736263736	14.074756043956	13.6025527472527	13.5222571428571	13.5673406593407	13.3330516483517	14.0440307692308	13.7874428571429	13.556589010989	13.1267417582418	13.7403181318681	14.1276230769231	13.7874428571429	13.556589010989	13.8478538461538	13.800943956044	14.0004252747253	13.7492571428571	13.6659714285714	14.0135043956044	13.7798736263736	13.8213714285714	13.5851714285714	12.400132967033	13.6726065934066	13.5851714285714	13.4838263736264	13.533332967033	13.6210340659341
222738_at                  	7.21905428571428	6.28743758241758	6.74749307692308	5.77285065934066	6.43674340659341	6.3701043956044	7.07809252747253	7.23492714285714	7.01250923076923	7.0695289010989	5.9433878021978	6.98526087912088	6.73280747252747	6.53634175824176	5.32120357142857	6.72482879120879	7.6252389010989	6.79564758241758	6.74178725274725	6.71628153846154	6.47072703296703	6.95997758241758	6.74070384615384	5.77611340659341	6.88772065934066	6.76719769230769	7.09490197802198	7.1211121978022	5.54515384615385	6.63051241758242	7.09970461538462	6.34686043956044	7.66136802197802	7.29447087912088	6.98012956043956	5.16043032967033	5.13310846153846	3.12721428571429	3.55711956043956	4.28095824175824	5.50256054945055	4.58108879120879	3.32560681318681	3.39978197802198	4.04417461538462	4.52726153846154	3.56517758241758	4.19014571428572	5.38812549450549	4.77648362637363	4.88896087912088	4.0262089010989	4.25531010989011	3.33778296703297	4.08716857142857	4.60351538461538	4.52954021978022	3.60374296703297	4.07752027472528	4.48473769230769	3.27515945054945	4.33396296703297	4.76994857142857	4.91867076923077	4.81837505494505	4.46983263736264	3.82010978021978	3.6177310989011	3.79182164835165	5.52217318681319
217398_x_at                	12.717310989011	12.4952868131868	12.5166714285714	12.6973373626374	12.1989967032967	12.5788505494506	12.0936296703297	12.4080351648352	12.0698230769231	12.1450692307692	12.504467032967	12.2214164835165	12.4734153846154	12.3794549450549	12.9414736263736	12.2099120879121	12.1527538461538	12.247032967033	12.4952868131868	12.4553989010989	12.2609230769231	12.3114802197802	12.6245164835165	12.4734153846154	12.2099120879121	12.3420362637363	12.3317230769231	12.3236659340659	12.6245164835165	12.504467032967	12.2961494505495	12.2402868131868	12.3843307692308	12.141578021978	12.2180241758242	13.4171417582418	13.3642472527473	13.4739615384615	14.107778021978	13.9446681318681	13.6145835164835	13.6403384615385	13.9544461538462	13.5270296703297	13.4790648351648	13.3435956043956	13.1911087912088	13.9890879120879	13.6777076923077	13.1951637362637	13.0596131868132	13.6531241758242	14.0135043956044	13.6777076923077	13.4952153846154	13.7874428571429	13.6997340659341	13.8648351648352	13.6915538461538	13.5510879120879	13.9136758241758	13.5363681318681	13.6915538461538	13.4688483516484	12.3317230769231	13.5729296703297	13.4867906593407	13.3545373626374	13.3642472527473	13.3685934065934
224061_at                  	10.1065724175824	9.8703721978022	9.43201472527472	9.21618901098901	10.0283367032967	9.47392373626374	10.3066884615385	10.0071191208791	10.5948274725275	9.84807285714286	9.17421901098901	10.2846747252747	9.1761956043956	9.03685164835165	9.90332571428571	10.8281582417582	9.9843732967033	10.4804505494505	9.90590626373626	9.43099835164835	10.1212110989011	9.06949362637362	10.687745054945	10.0092917582418	9.73849692307693	9.55576263736264	10.3730813186813	10.342	8.87726395604396	8.66934274725274	9.56839648351648	9.38023252747252	9.4496132967033	10.329010989011	9.3574867032967	7.62267230769231	6.80548071428571	4.35434269230769	5.00714362637363	7.12533802197802	7.87023835164835	5.37929142857143	4.91175560439561	5.67083340659341	5.14980318681319	7.81759010989011	5.07579582417582	6.20397318681319	5.0185267032967	7.9650921978022	5.89919626373626	6.47527505494506	5.2820567032967	4.97901703296703	5.19391802197802	7.52022549450549	6.10755318681319	4.28645708791209	4.30104340659341	6.58790571428572	4.85979406593407	5.45934351648352	5.50629516483517	5.29177901098901	6.87882626373626	5.97149626373626	5.68861241758242	5.03367862637363	5.89537714285715	6.64810703296703
201577_at                  	8.48332934065934	9.10859868131868	8.96070197802198	8.65882329670329	8.64760472527473	9.13272967032967	8.58718813186813	8.14059945054945	8.79202263736264	8.92004087912088	8.4564643956044	8.74813549450549	8.67847	9.38206186813187	9.68755076923077	8.82849703296703	9.14494241758242	8.6004289010989	8.89650714285714	8.77267164835165	8.21266967032967	8.04385648351648	8.45056395604396	9.02820714285714	8.3426610989011	8.52883681318681	8.62609120879121	8.20952186813187	10.4121263736264	9.36452978021978	8.3223510989011	8.63406043956044	8.25609043956044	8.3505134065934	8.79948758241759	9.61683208791209	10.280545054945	11.1706417582418	10.835421978022	10.8281582417582	10.1043033516484	10.4717571428571	12.0900230769231	10.9757703296703	10.7154989010989	9.9515643956044	10.3785571428571	10.1567391208791	10.9269879120879	10.1189605494506	11.4769791208791	10.3652791208791	11.0275461538462	11.3575142857143	11.0161945054945	10.9451637362637	10.012304010989	11.0608714285714	10.3374978021978	10.0126514285714	11.0563747252747	10.8920747252747	10.2797857142857	11.2253791208791	10.5528725274725	10.5233307692308	10.8156456043956	10.6265747252747	10.8776131868132	10.2044946153846
219918_s_at                	3.59556274725275	3.6749278021978	4.11489989010989	4.07407714285714	3.62707318681319	3.79229989010989	3.41088153846154	3.56678703296703	4.42485604395604	3.39742005494506	3.70957593406593	3.60661087912088	3.73378417582418	3.62272945054945	4.8119232967033	3.42068098901099	3.93715263736264	4.06738478021978	4.25598318681319	3.69751087912088	3.88558813186813	4.21335945054945	3.67171076923077	3.6482443956044	3.51293956043956	4.45175093406593	3.65189247252747	3.29101461538462	3.38108263736264	4.04702483516484	4.01786318681319	3.60328087912088	3.85843846153846	3.44734659340659	3.39028461538462	7.9948989010989	5.17639604395604	8.54079956043956	8.64617857142857	8.62762769230769	6.43573357142857	6.30589362637363	8.55541483516484	8.62521076923077	9.01560142857143	6.24854967032967	7.54237263736264	7.39158406593407	7.29223626373627	7.59198736263736	9.05494208791209	8.49263714285714	8.41670153846154	8.3741078021978	7.60099714285714	8.34492164835165	6.80947307692308	8.18124043956044	7.4437821978022	6.97150736263736	8.17126307692308	8.53585307692308	6.92701340659341	7.95348296703297	6.9527789010989	6.5451378021978	8.31537098901099	6.27297664835165	6.55301021978022	6.71691868131868
229308_at                  	8.08018571428572	8.02006846153846	8.07157285714286	8.05613252747253	7.66735857142857	7.02110461538462	7.97505087912088	8.77853450549451	8.07452054945055	8.22983483516484	7.11442131868132	7.64041472527472	7.72005483516483	7.53758901098901	6.78050241758242	8.6044021978022	8.6296756043956	7.76431318681319	7.82731637362637	7.50220307692308	7.90426615384616	8.41955263736263	7.73294934065934	6.67780021978022	7.60329791208791	8.03493868131868	7.74543571428572	8.55710505494505	5.86061324175824	8.00290010989011	8.0118389010989	7.44493692307692	8.1653289010989	7.9328310989011	8.30747758241758	5.14271901098901	5.25637065934066	3.41820164835165	4.26593351648352	4.61519351648352	6.18344747252747	3.56750340659341	2.92003241758242	3.46548835164835	3.69487747252747	5.53001945054945	3.54441494505495	5.30184241758242	5.96903010989011	6.58212252747253	4.97222989010989	4.50368604395605	4.49389593406593	3.97872148351648	3.54150285714286	4.76812571428571	4.39681274725275	4.19976406593407	3.52886032967033	6.82962857142857	3.64329472527473	4.14294703296703	4.37674450549451	3.89010021978022	4.18309560439561	3.41317307692308	4.26132065934066	4.12165912087912	3.34667153846154	4.31053384615385
223623_at                  	9.55240142857143	8.03717296703297	10.2536537362637	8.94941296703296	8.99159054945055	8.46599824175824	9.15274296703297	10.4581087912088	8.91512505494505	9.36452978021978	9.55166043956044	8.61266582417582	8.7273421978022	8.8032767032967	7.03852912087912	8.91790230769231	8.24789362637363	10.1442793406593	8.17551923076923	8.93677142857143	9.58600967032967	8.84620296703297	10.6296054945055	9.85579637362637	8.9227521978022	8.66366637362637	9.91674857142858	9.27266956043956	7.76007703296704	8.97019912087912	8.28325813186813	10.078591978022	9.00556697802198	9.6405989010989	9.25414483516484	7.5367821978022	5.7203010989011	4.96306054945055	4.44431538461539	6.77864351648352	7.17079736263736	4.62287428571429	3.74544692307692	6.6816721978022	6.96159703296703	4.80914296703297	4.10537785714286	4.41160406593407	4.6312732967033	6.13275725274725	4.61226527472528	4.61247087912088	4.85880571428571	3.57793252747253	4.26022296703297	5.25592351648352	5.63469791208791	4.6848132967033	4.27249505494505	4.74677494505494	4.67525	4.32431615384615	6.53611989010989	4.13872901098901	5.79029472527473	4.3084056043956	5.13619351648352	4.60978076923077	4.90453538461539	7.70083527472527
226856_at                  	8.2108043956044	8.51034989010989	8.35080494505494	8.65853802197802	7.31314406593406	7.60227879120879	7.74350637362637	9.42477472527472	7.91456538461539	7.7088267032967	9.53540362637363	7.64431142857143	7.73274967032967	7.26703016483516	7.83300532967033	8.82725252747253	8.0571121978022	6.95548895604396	8.38343912087912	7.09931593406594	7.85386230769231	7.10654582417582	8.67306758241758	8.16191461538461	8.69281912087912	8.23788274725275	8.77951824175824	9.25640824175824	6.50692510989011	7.52022549450549	7.36376142857143	7.10925791208791	7.53513142857142	7.66919417582418	8.14187978021978	7.29063637362637	5.27903318681319	5.34844681318681	4.77025758241758	5.09851571428572	6.94403582417582	5.03209978021978	5.2814478021978	5.54459010989011	5.18229714285714	6.46397582417582	5.07052604395604	5.52986516483516	5.12420516483517	6.08959351648352	5.32066153846154	5.25592351648352	5.0003156043956	5.26715406593407	5.07332252747253	5.6157989010989	5.42498901098901	5.48295065934066	5.11675972527472	4.99159538461538	4.72687593406593	4.93095549450549	5.37513912087912	5.2367110989011	5.63118252747253	5.73705505494505	5.74017043956044	5.35722549450549	5.45920923076923	5.07068362637362
219999_at                  	6.40232417582418	6.17373736263736	6.07086384615385	6.08650736263736	6.3133378021978	5.89798637362637	6.00492901098901	6.50844582417582	6.30893340659341	6.41678576923077	5.71726725274725	5.8230254945055	5.74984692307692	5.83238175824176	5.71344747252747	6.44318461538462	6.50187846153846	6.07103813186813	6.23719851648352	5.42851274725275	5.56422681318681	5.83797615384616	6.10931725274725	5.33437406593407	5.54397615384616	6.0796921978022	6.49418527472527	6.31582098901099	5.63152846153846	6.32078043956044	5.83201956043956	6.04500769230769	5.93115978021978	6.17599428571428	6.25297307692308	4.71125945054945	4.90196186813187	4.83909725274725	4.75762142857143	5.0391156043956	5.14406175824176	4.83114252747253	4.69146626373626	4.76510736263736	4.25247868131868	5.67481604395605	4.04368043956044	4.68561439560439	5.05924274725275	5.17639604395604	4.71995703296703	4.89428725274725	4.93688604395604	4.72974582417582	5.05706098901099	4.52049043956044	4.66518087912088	4.83957846153846	4.70733010989011	4.61552076923077	4.5823767032967	4.70487945054945	5.01649912087912	5.08087598901099	4.98133362637363	4.97394153846154	4.62343703296703	4.11438758241758	5.27139813186813	4.84046637362637
228273_at                  	5.86127340659341	5.58123642857143	6.21175417582417	6.62951054945055	5.63807258241758	6.46640571428571	5.02093835164835	5.34545494505494	6.2219510989011	4.89284758241758	5.81863879120879	5.57649428571429	5.52670571428571	5.25881604395604	6.84925263736264	5.55597208791209	6.82434351648352	6.05650274725275	6.70956142857143	6.02804494505494	5.30590725274725	6.49805736263736	5.81887670329671	6.18214247252747	5.51242989010989	5.86017516483516	5.96375076923077	5.20291879120879	4.38666879120879	6.47906648351649	6.08404450549451	5.72631725274725	5.84820692307692	5.10078175824176	4.93259582417582	8.18294076923078	6.68127032967033	9.50527153846154	9.66223769230769	9.24194615384615	7.9188667032967	8.68429538461538	10.5803021978022	8.95744615384615	9.34253241758242	7.55779978021978	7.6722067032967	8.2735445054945	8.94279043956043	7.9188667032967	9.02044736263736	9.30255461538462	9.91762642857143	8.57776615384615	9.64764406593407	8.14206549450549	8.88306395604396	9.49200241758242	8.91322516483517	7.84931747252747	9.04970417582418	9.47352560439561	8.23610829670329	9.1320532967033	7.43060263736264	7.91717516483516	9.29856901098901	8.46503901098901	7.90085989010989	8.9157854945055
202503_s_at                	5.19553626373626	7.40115021978022	7.0716171978022	8.43432434065934	6.3524178021978	6.62053945054945	5.15618230769231	5.5691921978022	6.58925076923077	5.55629230769231	6.28272626373626	6.36773527472528	6.24662483516484	5.62912384615384	7.93260362637362	5.81945032967033	7.59324494505495	6.08069175824176	7.24375214285714	6.9949867032967	5.2365193956044	6.8591621978022	6.31061197802198	6.56278406593406	5.61196472527473	6.17850318681319	5.30151769230769	5.15184648351648	4.78127258241758	7.59134813186813	6.59428956043956	6.8166356043956	6.60915252747253	5.92369461538462	4.66574747252747	8.45732054945055	8.35289208791209	12.4469527472527	10.858989010989	10.2044946153846	9.24520637362637	9.6870132967033	10.7525543956044	11.3012483516484	12.3147065934066	8.46762582417582	9.70064087912088	10.1325073626374	9.87788450549451	9.67337736263736	10.2813637362637	10.0582614285714	10.4717571428571	10.7725692307692	10.3127065934066	9.82315098901098	9.03647769230769	10.5549934065934	9.62711274725275	8.83362967032967	10.771967032967	11.4955527472527	9.44082362637362	10.562267032967	8.99159054945055	8.23840494505495	10.9660813186813	9.37531725274725	10.0820246153846	10.2037192307692
AFFX-HUMGAPDH/M33197_3_at  	12.8151296703297	12.8444065934066	12.6790637362637	13.100667032967	12.3843307692308	13.0303703296703	12.1852901098901	12.7851340659341	12.5519956043956	12.3794549450549	12.6061417582418	12.5166714285714	12.4783868131868	12.4642296703297	13.2156835164835	12.5386747252747	12.9035362637363	12.3843307692308	12.9647582417582	12.4642296703297	12.1882945054945	12.5564912087912	12.8385395604396	12.6333318681319	12.416510989011	12.5564912087912	12.6837241758242	12.7552934065934	12.8103813186813	12.8977175824176	12.520943956044	12.4866681318681	12.6154076923077	12.225089010989	12.6527725274725	13.6531241758242	13.5510879120879	13.6531241758242	14.1981945054945	14.2195835164835	13.8842296703297	14.0004252747253	14.1276230769231	13.8213714285714	13.5851714285714	13.6592241758242	13.533332967033	14.1276230769231	13.8648351648352	13.4790648351648	13.2849208791209	13.8064076923077	14.3137747252747	13.7942120879121	13.7369527472527	14.074756043956	13.7188648351648	14.0440307692308	13.9136758241758	13.7573395604396	14.0004252747253	13.7942120879121	13.731021978022	13.4739615384615	12.5883043956044	13.7722659340659	13.6432241758242	13.6531241758242	13.4688483516484	13.5793681318681
227198_at                  	8.20435060439561	7.42034846153846	6.56767879120879	7.27009186813187	6.83704824175824	6.5638178021978	7.31227395604396	7.99272285714286	7.13286318681319	8.04123461538462	7.19609417582418	8.72882307692308	7.96448648351648	6.32658175824176	5.30998527472528	8.04575967032967	7.62721098901099	7.76627582417582	7.09863626373626	7.66026241758242	7.30057747252747	8.01742604395605	7.13452252747253	4.61144879120879	6.78992648351648	7.41428604395605	7.00574153846154	7.93433351648351	6.1277265934066	6.59208516483516	7.3570032967033	7.20636868131868	7.45022923076923	8.3361767032967	7.46457747252747	4.49987186813187	3.53568527472527	3.13396098901099	3.28321681318681	4.55823373626373	5.42672373626374	3.10413450549451	3.26244664835165	3.39903340659341	3.69208934065934	4.34969230769231	3.63123598901099	3.86700851648352	3.0016143956044	4.65248813186813	3.54337197802198	4.31710978021978	3.23419318681318	3.39174	5.57402269230769	4.79460835164835	3.35018571428571	2.89558340659341	3.03850604395604	3.27774527472527	3.2058178021978	3.68728527472527	3.70644351648352	7.60488835164835	3.32251043956044	3.37545516483516	3.43470802197802	4.27232714285714	3.56363076923077	3.23801879120879
223311_s_at                	5.95894736263736	6.5586343956044	6.05927329670329	6.60039945054945	6.36832175824176	5.85216	6.17659252747253	6.09282637362637	6.33608274725275	6.08924340659341	6.68432230769231	6.04025527472527	6.5558421978022	6.28132153846154	6.59333901098901	7.12081747252747	6.5982067032967	5.98783395604396	6.34266071428571	6.54198307692308	6.1987356043956	6.17728868131868	6.33627978021978	6.48070681318681	6.32555835164835	6.40324593406594	6.25352934065934	6.39409076923077	5.79595241758242	6.30090549450549	6.43271230769231	6.14433549450549	6.62105593406593	6.53511263736264	6.47294791208791	7.41220087912088	7.82848692307692	8.04454208791209	8.31981296703297	7.68763054945055	7.86731318681319	7.73846802197802	8.24585384615385	8.31795571428572	8.43708142857143	7.19609417582418	8.05994230769231	8.18845901098901	7.44571857142857	8.03971516483516	7.53658472527472	7.48460681318682	7.49709791208791	7.54237263736264	8.39392362637363	7.25375703296703	7.35661087912088	7.69947263736264	7.15556186813187	8.07855527472528	8.0263232967033	7.16378527472528	7.59075879120879	7.95786335164835	8.11659593406593	7.61729483516483	8.5764478021978	8.0472267032967	8.03264274725275	6.96757362637362
227419_x_at                	8.79358582417582	9.77534054945055	8.53826252747253	8.38676032967033	8.33168516483516	7.69966538461538	8.03618186813186	9.81023626373626	9.24318857142857	9.44082362637362	7.27512098901099	8.09020021978022	8.86072285714286	8.37513252747252	7.21946813186813	9.50937769230769	8.85622296703297	8.69983725274725	8.68429538461538	9.05785054945055	8.92702	7.87383362637363	9.88126494505494	8.74623758241758	8.28945076923076	8.71087758241758	9.26202131868132	9.92608340659341	7.8591365934066	8.30107186813187	8.37690076923077	8.12654917582418	8.39635505494506	8.25609043956044	8.64343296703297	6.75436604395605	6.20134714285715	4.55383197802198	5.13168857142857	5.12486274725275	6.12371362637363	5.72985802197802	4.55879384615385	4.92351087912088	6.41768065934066	6.85656252747253	5.72595142857143	5.31144604395604	4.89163274725275	7.04257791208791	5.50629516483517	5.14157175824176	4.47841274725275	5.01988	5.16535263736264	6.25494472527472	5.8924678021978	4.71043582417582	5.1820056043956	6.00147670329671	5.39012835164835	5.11014	6.16513494505494	5.65814593406594	6.61170912087912	5.54798412087912	5.47538648351648	5.38308593406593	5.34632241758242	8.48632241758241
235568_at                  	11.275621978022	11.9139450549451	9.06502307692307	10.4673142857143	11.8948	10.4485835164835	10.9141747252747	10.9066758241758	10.9426032967033	10.0527560989011	11.2895340659341	10.2311643956044	11.2433978021978	10.9742340659341	9.18519219780219	10.8801725274725	12.0215032967033	9.6938667032967	11.8012835164835	10.6100637362637	10.6980576923077	12.2026340659341	10.9947538461538	10.2399317582418	11.5313725274725	10.5601593406593	11.589643956044	10.6757549450549	10.3946483516484	12.5338175824176	11.0332032967033	11.4055483516484	11.5165725274725	11.6791032967033	10.4824824175824	7.49893186813187	8.24455285714286	5.1283489010989	5.12034164835165	5.03445362637362	8.55541483516484	6.39866703296703	5.75897626373626	4.9551521978022	5.42874703296703	7.21926065934066	4.84458945054945	8.52268186813187	5.74930593406593	7.75076208791209	6.74639450549451	7.01324054945055	5.9024878021978	6.22643945054945	6.17504120879121	9.7394954945055	7.03612120879121	5.42111835164835	5.40561032967033	6.21998835164835	6.20463813186813	5.7633554945055	8.99861846153846	7.21410934065934	6.16644472527472	5.92299879120879	5.53949857142857	7.49304714285714	7.78313043956045	6.46062032967033
210052_s_at                	4.04230516483516	4.66253384615385	4.78132835164835	5.1450554945055	4.64419494505494	4.47831868131868	4.48944153846154	4.08654593406593	4.74736510989011	3.7800456043956	4.75099923076923	4.06407065934066	4.93597010989011	4.24823373626374	5.52719835164835	4.50378956043956	4.7336467032967	5.01160626373626	4.51976318681319	5.09300835164835	4.60424989010989	4.63467153846154	4.3811256043956	4.43796857142857	4.29773307692308	4.48255813186813	4.31474846153846	4.13081648351648	4.5062178021978	5.05248131868132	4.75589065934066	4.27351604395604	4.46263142857143	3.84057978021978	4.24449384615385	8.61589791208791	6.48557571428572	9.43808010989011	9.58697098901099	8.73250813186813	7.87156901098901	7.79206857142857	10.3002527472527	8.65032384615384	9.98375846153846	5.94411318681319	7.33948736263736	8.59641384615385	7.91528285714286	7.91281516483516	8.2396967032967	8.82277263736264	9.23394736263736	9.36106274725275	9.24113670329671	9.05011076923077	8.10385703296704	9.97682395604395	8.52556879120879	7.27057747252747	9.4168843956044	9.25546681318681	8.05057263736264	8.74936417582417	7.11520065934066	7.47779846153846	9.26202131868132	9.11569450549451	7.4263843956044	7.54985318681319
228434_at                  	11.5141758241758	10.1253257142857	9.06537714285714	9.09697197802198	8.7977721978022	9.3219921978022	8.91512505494505	9.83290450549451	8.92489835164835	10.5411450549451	8.1640132967033	10.1219532967033	9.37390263736264	8.93136395604396	7.10507494505495	10.2399317582418	10.2327434065934	10.2572296703297	8.94616879120879	9.00843379120879	10.3820241758242	10.1299551648352	9.39063538461539	6.98288230769231	10.5440142857143	9.56079395604396	9.36247846153846	10.2590637362637	7.99118351648352	8.30491692307692	9.23897989010989	10.1811169230769	9.08172956043956	8.79321384615384	10.708778021978	5.95116637362637	4.85667010989011	6.11056978021978	5.47474824175824	6.43193868131868	8.47216945054945	4.98774912087912	6.2904978021978	6.61753615384615	6.14009571428572	5.86305472527473	4.76630587912088	7.91763417582418	5.51838835164835	6.28602868131868	6.49945274725274	5.79064736263736	5.49429516483516	6.07198186813187	5.70547472527472	7.18608131868132	4.6259578021978	4.99848021978022	5.34892758241758	5.68708703296704	5.35907384615385	5.48049285714286	5.26245395604396	5.44837769230769	6.87759241758242	5.74895417582417	5.74482010989011	5.66088318681319	6.17353538461539	5.23894857142857
213011_s_at                	10.8746076923077	11.0374714285714	10.7713648351648	11.5030989010989	11.023256043956	10.8014989010989	10.8232868131868	11.0434989010989	11.1080291208791	10.7435	10.6629582417582	10.6573142857143	11.0908769230769	10.9516252747253	11.4304934065934	10.9343538461538	11.0090626373626	10.5917351648352	11.1377912087912	11.0441549450549	10.9799978021978	10.9052153846154	11.2866758241758	10.9660813186813	10.8208153846154	10.7816516483516	10.9012824175824	10.9227945054945	11.1549593406593	11.116410989011	10.8880208791209	10.6901252747253	10.8700241758242	10.5401263736264	10.9141747252747	12.0404846153846	12.0462791208791	11.9382857142857	12.6333318681319	12.7461450549451	12.1527538461538	12.3387087912088	12.6706604395604	12.0832582417582	11.9604307692308	12.0667010989011	11.9921318681319	12.5696054945055	11.9827604395604	11.898067032967	11.7203626373626	12.0085010989011	12.7271010989011	12.1527538461538	12.3751934065934	12.3077406593407	12.247032967033	12.657021978022	12.1756098901099	12.247032967033	12.6527725274725	12.2062	12.2290494505495	12.4427428571429	10.9132362637363	12.2438615384615	12.2062	11.7810131868132	11.9564791208791	12.0338054945055
230135_at                  	7.50252269230769	8.30297813186813	7.74653637362637	6.25316384615385	7.43446043956044	5.71823230769231	7.79102857142857	8.39307824175825	8.9147456043956	7.8335089010989	8.36775241758242	8.50869340659341	8.34969714285714	6.52396945054945	8.62404637362637	9.31083307692308	7.49440362637362	8.82142417582418	6.97322571428571	7.93085384615385	7.01516296703297	8.82239681318681	7.38072175824176	6.66568307692308	8.16439901098901	8.29084230769231	9.04279131868132	8.31563758241758	5.83955307692307	8.14338263736264	7.16102879120879	7.33847956043956	7.41779659340659	8.62658467032967	8.76720736263736	5.28321989010989	3.72385538461538	3.76768945054945	3.98417406593407	4.63670384615385	7.11787252747252	3.89336714285714	4.96919	3.833905	4.00765472527472	5.46272208791209	3.62376181318682	4.15368153846154	3.50548450549451	5.05863967032967	3.85349142857143	3.81638065934066	4.37485604395604	3.88742637362637	3.37723186813187	6.06584857142857	4.28127725274725	3.83626186813187	6.11485505494505	3.48350208791209	3.96699384615385	5.33655087912088	5.12631901098901	5.48606329670329	3.94914835164835	3.62220747252747	4.24355296703297	4.40989653846154	4.50809912087912	3.87602384615385
225078_at                  	12.335343956044	11.6937076923077	11.8917197802198	11.1739252747253	12.3628461538462	11.2481681318681	12.2327494505495	12.027856043956	11.8114791208791	12.1786318681319	10.9970032967033	12.097532967033	12.3843307692308	12.4375923076923	10.5825263736264	12.3275582417582	11.9439384615385	11.7552648351648	11.9070802197802	12.0338054945055	12.4427428571429	12.1957274725275	11.7906142857143	11.6094703296703	12.0698230769231	12.0338054945055	12.3191274725275	12.0462791208791	11.1391747252747	11.519732967033	12.6333318681319	11.8710582417582	12.2137791208791	12.3713362637363	12.0900230769231	9.49489373626374	9.29856901098901	9.0668178021978	10.0718948351648	9.82242703296703	10.7816516483516	8.93951978021978	8.09781648351649	9.21826296703297	10.457132967033	10.060357032967	8.96746120879121	8.71214802197803	7.77110186813187	9.55931747252747	9.72950351648352	9.02489186813187	9.82961	10.522378021978	8.58320065934066	10.2181532967033	9.24740758241758	10.4750736263736	9.06928532967033	8.88289686813187	9.86352505494506	9.6106910989011	8.91652054945055	9.3098878021978	10.4243681318681	8.45136087912087	10.0870208791209	8.93604351648352	9.78873087912088	9.58386483516483
204825_at                  	5.21585384615385	4.98894373626373	5.07549945054945	5.85337175824176	5.22520098901099	5.16183538461538	4.58680098901099	5.10795725274725	5.00498565934066	5.06218450549451	5.00768967032967	5.07225054945055	5.04388857142857	5.08515934065934	5.84498505494506	5.05965846153846	5.8648356043956	5.25623164835165	5.40094296703297	5.26252313186813	4.42127142857143	5.40851582417582	4.9571121978022	4.95425472527473	5.04335208791209	4.79846439560439	5.24046428571428	5.32113362637363	5.08664747252747	5.52452978021978	4.79686835164835	5.7620043956044	4.86489076923077	4.90196186813187	4.35703505494506	9.59067	6.67894593406593	9.31709054945055	9.63681736263736	8.88710428571429	8.36345252747252	7.62267230769231	10.4278813186813	9.53300978021978	8.99861846153846	6.62053945054945	8.33471725274725	8.64890769230769	8.96102076923077	7.56070582417582	9.03983032967033	9.46333637362637	8.30904384615385	9.46633648351648	8.55573901098901	8.47847736263736	7.60655461538461	9.26614472527472	7.83972098901099	6.99740285714286	9.37390263736264	8.32537516483517	8.57355153846154	8.9281817032967	7.57656120879121	7.58483032967033	8.73281208791208	7.93571697802198	8.05543483516484	8.07593758241758
202705_at                  	4.48499659340659	5.69080461538462	5.03074615384615	6.3087610989011	4.77352791208791	4.5730978021978	4.55405450549451	4.3220421978022	4.92261351648352	4.07801164835165	5.08780043956044	4.60832362637363	4.40110296703296	4.91726010989011	5.51074681318681	4.57532384615385	6.18741681318681	4.88507065934066	5.57930010989011	5.27439912087912	4.38356142857143	5.22490538461538	4.90590274725275	4.45302692307692	4.33847923076923	4.86031252747253	4.70544131868132	4.02734604395604	4.10660626373626	6.29196549450549	4.64063923076923	5.18887445054945	4.92731054945055	4.49937010989011	4.22343681318681	7.60843373626374	7.01978472527472	10.1957779120879	10.2276802747253	9.39371912087912	8.18467373626373	7.79855120879121	9.94173923076923	9.76065373626374	10.2839065934066	6.83271395604395	8.26447032967033	8.76259307692308	8.46503901098901	7.47117505494505	7.88892230769231	8.96704813186813	9.23985615384615	9.01904142857143	9.13702054945055	8.77917703296703	7.73461868131868	9.18882956043956	7.87583659340659	7.5477234065934	9.87354989010989	9.37026032967032	8.49954582417583	9.02893208791209	6.64115263736264	7.1572410989011	9.92284076923077	7.71232626373626	7.91837560439561	7.57125032967033
224428_s_at                	3.94457340659341	3.33351494505494	5.40851582417582	5.51191923076923	3.77089428571429	3.90859252747253	4.35778835164835	3.87360928571429	5.95284516483517	3.73599351648352	4.81522978021978	4.07439131868132	4.36877186813187	4.21096527472528	7.02947846153846	3.73602005494506	3.84222197802198	5.10740153846154	5.63118252747253	5.01623208791209	3.95703824175824	3.92369054945055	4.41737659340659	4.64675131868132	3.11634868131868	4.36834065934066	4.67416296703297	3.72149659340659	3.96311164835165	4.5596510989011	4.34578208791209	4.45793131868132	5.08420516483516	3.69422747252747	3.92529252747253	7.19979285714286	8.50066417582418	7.64838032967033	9.5732043956044	8.76868373626374	7.01596736263736	6.38812791208791	8.6282232967033	6.81562021978022	9.17006483516484	7.53699747252747	9.40514373626374	8.79006769230769	6.76609851648352	6.51354373626374	8.92608571428572	8.40646	7.50537681318682	7.61544329670329	8.42252159340659	6.5815132967033	6.50460901098901	8.51207945054945	8.27827967032967	10.0350201098901	7.98582989010989	8.76628879120879	6.47423945054945	8.63626263736263	8.34602285714286	6.83363692307692	8.64587351648352	7.52795758241758	9.30379901098901	7.34265010989011
202095_s_at                	3.83336296703297	4.61120582417582	4.94265626373626	5.58384824175824	4.21328527472527	4.59044483516483	3.8507021978022	4.04174956043956	4.8526210989011	3.84160274725274	4.48414879120879	4.53424307692308	4.59987054945055	3.65441549450549	4.84208912087912	4.2694910989011	5.04556571428571	3.9848778021978	4.77100516483516	4.91681131868132	3.92369054945055	4.63302758241758	4.33343659340659	4.57673439560439	3.7926432967033	4.26821637362637	4.24407791208791	4.24134373626374	3.88301758241758	5.02428010989011	4.63714604395605	4.13237692307692	4.10246186813187	3.84827	3.61216054945055	8.11982516483516	5.83527725274726	9.68102010989011	9.44770846153846	9.36154549450549	7.40573912087912	7.65676043956044	9.99018076923077	7.90157989010989	9.08172956043956	5.72667923076923	7.3722878021978	7.54451857142857	7.86389681318682	7.53742395604396	8.00806142857143	8.33321395604395	9.31709054945055	8.95200593406594	8.84789934065934	8.90521120879121	7.96837692307692	9.0307732967033	8.32583043956044	7.35833714285714	8.78518747252747	8.94835483516483	7.38666714285714	9.54745296703296	6.73128087912088	6.72988648351649	9.13064945054945	8.1117443956044	8.3653132967033	7.46753890109891
230250_at                  	11.0899983516484	9.3098878021978	10.3217714285714	9.48007098901099	10.4995747252747	10.557771978022	9.72549395604396	9.83874131868132	10.8348494505495	10.5352021978022	9.83511417582417	10.7351637362637	10.0396824175824	9.56486428571428	9.49959505494505	9.885209010989	10.2044946153846	11.2582681318681	9.82180736263736	10.1625616483516	10.260732967033	10.6113417582418	10.3221747252747	9.82367571428571	9.99611417582418	11.1880626373626	9.6755632967033	10.1105426373626	9.10859868131868	8.46302868131868	10.4778945054945	10.1002240659341	10.4398362637363	10.412843956044	10.1957779120879	8.30819263736264	7.17849846153846	5.89620472527473	5.3876210989011	5.1557210989011	8.92765835164835	7.24731054945055	5.43957461538461	5.44919681318681	6.67954252747253	7.45128230769231	6.60873857142857	6.03424373626374	5.91160956043956	8.21640258241758	7.09158351648351	6.90151087912088	5.72471230769231	5.43189406593407	5.52340439560439	8.42209241758242	6.46358395604396	5.96136879120879	6.76564043956044	7.14273098901099	5.79130747252747	6.6522	6.11765142857143	7.91114494505495	7.56604835164835	6.54627120879121	6.55846758241758	6.16375043956044	7.06622604395604	7.95305824175824
214687_x_at                	11.8226406593407	11.8479197802198	11.6470824175824	11.6701582417582	12.1852901098901	11.7930296703297	11.6470824175824	11.5030989010989	11.7859406593407	11.7129912087912	11.7703901098901	11.653756043956	12.0029637362637	11.8948	12.1117505494506	11.5185494505495	12.0832582417582	11.5812681318681	12.1560483516484	11.9040263736264	11.7606186813187	12.0245538461538	12.0432604395604	11.7678241758242	11.6914417582418	11.676843956044	11.9564791208791	11.5420505494505	12.0308549450549	12.1319758241758	11.765256043956	12.0338054945055	11.9858153846154	11.8862692307692	11.6598994505494	12.7905714285714	12.8977175824176	12.7461450549451	13.0857714285714	12.6110527472527	12.8845175824176	13.1911087912088	12.675510989011	12.7851340659341	12.692310989011	12.5655527472527	12.5834076923077	12.4553989010989	13.0352098901099	12.6333318681319	12.5601791208791	11.9040263736264	12.9035362637363	12.5788505494506	12.775367032967	12.7552934065934	12.8845175824176	13.2895813186813	12.9316087912088	13.1321120879121	13.0203802197802	12.9647582417582	12.6878758241758	12.801132967033	12.1245747252747	12.6706604395604	12.7068186813187	12.7955923076923	12.8444065934066	12.8488494505495
240890_at                  	6.93041472527473	7.26973208791209	6.67258120879121	6.96990868131868	6.03985186813187	6.59393098901099	6.14603813186813	7.82770978021978	6.89277714285714	6.65290120879121	5.66958247252747	6.08404450549451	6.32618252747253	5.89152395604396	5.44107505494505	7.62828351648352	7.38685637362637	6.96679153846154	7.21513450549451	6.46721879120879	6.32312461538461	6.43080087912088	6.77130098901099	5.86160307692307	6.24922796703297	6.95997758241758	7.06274197802198	6.77065439560439	5.46635417582418	6.99458340659341	6.92488318681318	6.24733032967033	6.47250769230769	6.59576461538462	6.12956351648352	4.88844065934066	4.22038230769231	3.63719296703297	4.08615148351648	4.24991362637363	5.32284461538462	4.35412516483516	4.16551	3.95227571428571	4.15375571428571	5.79766846153846	4.53676912087912	4.13397681318681	4.58858879120879	4.81441010989011	5.00320296703297	4.47716516483516	4.35693747252747	3.53134164835165	4.51826230769231	5.11991769230769	4.81346153846154	3.78692065934066	4.43000901098901	5.4906882967033	4.0502378021978	4.31550054945055	4.78640692307692	4.80372417582418	4.38224010989011	4.64600263736264	4.45709934065934	4.41160406593407	4.81755736263736	5.24890203296703
AFFX-HUMGAPDH/M33197_5_at  	11.9534153846154	11.7179527472527	11.947421978022	11.2866758241758	11.6243824175824	11.9326516483516	11.7104923076923	10.9947538461538	11.1832571428571	11.6094703296703	12.0404846153846	11.5745384615385	11.7576208791209	11.556310989011	12.3628461538462	11.1489978021978	10.6091087912088	11.7373659340659	11.2278846153846	12.0532835164835	11.7319989010989	11.8830054945055	11.1931010989011	11.9203208791209	11.7346956043956	11.7373659340659	10.9713747252747	11.1026406593407	12.0432604395604	11.5877208791209	11.7930296703297	11.6743340659341	11.672378021978	11.3033087912088	11.5141758241758	12.8385395604396	12.8296417582418	13.1128153846154	13.9029120879121	13.6267571428571	13.3281681318681	13.6777076923077	13.5851714285714	13.100667032967	12.9268945054945	12.8335230769231	12.7851340659341	13.8064076923077	13.2752021978022	12.2026340659341	12.6436604395604	13.2347120879121	13.8213714285714	13.2609692307692	13.0800714285714	13.5793681318681	13.3047714285714	13.6025527472527	13.4531648351648	13.1861505494505	13.432032967033	13.3435956043956	13.2111989010989	13.0857714285714	11.6427967032967	13.1267417582418	13.2178791208791	12.9994186813187	12.9994186813187	13.1593967032967
